Raman Shift,Intensity 
400,9.584049558
401,9.620896257
402,9.623142668
403,9.601812849
404,9.644184589
405,9.59445234
406,9.57085003
407,9.566376545
408,9.61276653
409,9.628276999
410,9.594284286
411,9.645209618
412,9.604378136
413,9.5891841
414,9.635109517
415,9.559479959
416,9.583118357
417,9.596449055
418,9.553505157
419,9.559307654
420,9.591866666
421,9.593279575
422,9.646280955
423,9.659247098
424,9.615105465
425,9.583361863
426,9.610064724
427,9.621358737
428,9.559516831
429,9.630420931
430,9.584005448
431,9.587110007
432,9.581852918
433,9.536088128
434,9.610445249
435,9.576373613
436,9.675289757
437,9.61970735
438,9.606354737
439,9.560846617
440,9.63644252
441,9.618880729
442,9.592022267
443,9.574351911
444,9.613052534
445,9.588557316
446,9.648091281
447,9.585111094
448,9.599541485
449,9.588772769
450,9.595955835
451,9.559241486
452,9.631602471
453,9.593053428
454,9.591138714
455,9.621434226
456,9.629716578
457,9.61336308
458,9.587616642
459,9.609736369
460,9.558804997
461,9.581885679
462,9.595023039
463,9.587224739
464,9.66473976
465,9.527265266
466,9.584282697
467,9.626089369
468,9.619460878
469,9.567209194
470,9.60473933
471,9.585363151
472,9.623179581
473,9.664244551
474,9.585244676
475,9.59640078
476,9.596212427
477,9.602325495
478,9.606179001
479,9.622724233
480,9.63895408
481,9.63720946
482,9.614866614
483,9.55098935
484,9.599874271
485,9.594884792
486,9.632525615
487,9.584578933
488,9.566609615
489,9.584769213
490,9.538348338
491,9.577554051
492,9.620209153
493,9.588714253
494,9.587803397
495,9.648334319
496,9.606299998
497,9.631744273
498,9.593833586
499,9.558093632
500,9.621243914
501,9.573811726
502,9.552693493
503,9.570364708
504,9.604624082
505,9.618878548
506,9.598044517
507,9.609341452
508,9.613872004
509,9.640090048
510,9.563004036
511,9.600263396
512,9.61207063
513,9.616110569
514,9.550540119
515,9.656603666
516,9.611350264
517,9.639894749
518,9.61708947
519,9.608932077
520,9.61923963
521,9.549902505
522,9.572073505
523,9.641020717
524,9.543819278
525,9.577694444
526,9.560844145
527,9.608127078
528,9.551413489
529,9.592192425
530,9.542471223
531,9.593685273
532,9.600616131
533,9.594377048
534,9.560803028
535,9.564924344
536,9.574219481
537,9.628040756
538,9.610652006
539,9.617799078
540,9.656882392
541,9.67115003
542,9.658566958
543,9.579924021
544,9.660302142
545,9.580120991
546,9.614518208
547,9.616294793
548,9.557634951
549,9.609007717
550,9.563062533
551,9.606720545
552,9.610816687
553,9.536912257
554,9.580125186
555,9.569112812
556,9.579447201
557,9.585133401
558,9.637489168
559,9.643942351
560,9.612872954
561,9.54413684
562,9.576747549
563,9.629890862
564,9.59660981
565,9.543155758
566,9.563574789
567,9.547364537
568,9.595118437
569,9.622185334
570,9.569540991
571,9.579874428
572,9.595042266
573,9.65627166
574,9.604128234
575,9.596347848
576,9.619450307
577,9.534761851
578,9.603666601
579,9.609185399
580,9.560568865
581,9.648987311
582,9.563361265
583,9.627045836
584,9.622930137
585,9.619160706
586,9.609204019
587,9.596734081
588,9.643720673
589,9.666747969
590,9.604760222
591,9.622378249
592,9.64437787
593,9.566506681
594,9.603653203
595,9.684486607
596,9.573286592
597,9.591532765
598,9.652408789
599,9.576351003
600,9.630035566
601,9.592306586
602,9.527643491
603,9.634252827
604,9.568373704
605,9.595948041
606,9.592587569
607,9.606867336
608,9.585148365
609,9.58084752
610,9.588270541
611,9.556765735
612,9.573143108
613,9.632707444
614,9.575056433
615,9.593899799
616,9.613310276
617,9.625720425
618,9.628285019
619,9.607637707
620,9.621033661
621,9.561641721
622,9.608467132
623,9.577169574
624,9.596246745
625,9.603074049
626,9.588965413
627,9.61815479
628,9.628269047
629,9.5350047
630,9.636951166
631,9.630939807
632,9.643634097
633,9.658455307
634,9.587779253
635,9.575850042
636,9.563956
637,9.609425009
638,9.611450884
639,9.571118372
640,9.63068266
641,9.605836441
642,9.660154046
643,9.574785645
644,9.54279247
645,9.649104417
646,9.592392541
647,9.650415798
648,9.60289273
649,9.536279063
650,9.586209151
651,9.621349999
652,9.584406348
653,9.593393925
654,9.605707948
655,9.544797579
656,9.586947676
657,9.620417079
658,9.614944659
659,9.619773897
660,9.618989543
661,9.61273234
662,9.546786642
663,9.628774935
664,9.541540866
665,9.594472016
666,9.60314347
667,9.576385546
668,9.587205442
669,9.610265695
670,9.603246854
671,9.608085763
672,9.615340187
673,9.603330867
674,9.649457679
675,9.640393845
676,9.619159322
677,9.584513705
678,9.58560737
679,9.628153858
680,9.608125114
681,9.577549355
682,9.617612658
683,9.618824202
684,9.632906646
685,9.630079546
686,9.634099089
687,9.587522673
688,9.60786336
689,9.623314381
690,9.559072989
691,9.594632037
692,9.650552294
693,9.600006204
694,9.600596848
695,9.590822474
696,9.605765859
697,9.565590844
698,9.550715781
699,9.634814507
700,9.551199748
701,9.59400278
702,9.573972051
703,9.652668234
704,9.623342478
705,9.572862173
706,9.583385579
707,9.628335351
708,9.60680965
709,9.61410407
710,9.578369543
711,9.56759157
712,9.600676304
713,9.594459542
714,9.613298378
715,9.585351319
716,9.549940346
717,9.611575981
718,9.588390016
719,9.642853173
720,9.689703455
721,9.566987675
722,9.591659231
723,9.610242747
724,9.594534375
725,9.560868233
726,9.588215034
727,9.513716324
728,9.590591205
729,9.631490042
730,9.552044577
731,9.616486144
732,9.610890042
733,9.551525357
734,9.5895216
735,9.647028669
736,9.593946368
737,9.624358373
738,9.626679417
739,9.589938548
740,9.59310128
741,9.595950368
742,9.592348285
743,9.619784522
744,9.608935712
745,9.609404778
746,9.576009734
747,9.597063951
748,9.611108611
749,9.59484572
750,9.588171295
751,9.589953227
752,9.672273025
753,9.569039129
754,9.619885901
755,9.578353858
756,9.638466646
757,9.615421707
758,9.687488474
759,9.569862216
760,9.536522728
761,9.582956735
762,9.657714308
763,9.618254107
764,9.61753312
765,9.583130013
766,9.598941981
767,9.61223376
768,9.587262116
769,9.647958537
770,9.608780365
771,9.616502793
772,9.665456709
773,9.640073611
774,9.655693541
775,9.633247645
776,9.576476989
777,9.628161499
778,9.594691846
779,9.608669099
780,9.607563537
781,9.672605324
782,9.619585715
783,9.640376509
784,9.634719764
785,9.649180487
786,9.661230392
787,9.644557246
788,9.73156127
789,9.72267084
790,9.658436245
791,9.682555014
792,9.678751399
793,9.672776089
794,9.699439977
795,9.717577148
796,9.686092489
797,9.747773945
798,9.722733555
799,9.774252794
800,9.749514952
801,9.785695924
802,9.781193553
803,9.798891492
804,9.869868119
805,9.854625276
806,9.854837561
807,9.870690207
808,9.865327898
809,9.873663121
810,9.946505345
811,9.920531623
812,9.898495101
813,10.01812919
814,10.02851892
815,10.04459645
816,10.10463924
817,10.06342993
818,10.07886022
819,10.1409696
820,10.1429896
821,10.19414442
822,10.24499164
823,10.18809272
824,10.26040165
825,10.28393878
826,10.29341755
827,10.28553927
828,10.32407585
829,10.35574343
830,10.40146015
831,10.43523441
832,10.33637163
833,10.4574444
834,10.4726991
835,10.47020454
836,10.50782458
837,10.54153702
838,10.56400339
839,10.53255406
840,10.57785703
841,10.56239489
842,10.58778052
843,10.56480592
844,10.61985988
845,10.58637964
846,10.59005717
847,10.60785611
848,10.59297267
849,10.61334239
850,10.59635349
851,10.60467178
852,10.58176254
853,10.57271662
854,10.60681395
855,10.54492834
856,10.53253772
857,10.49249352
858,10.47042724
859,10.49041818
860,10.46160238
861,10.41973344
862,10.45705233
863,10.43985519
864,10.38967667
865,10.41457328
866,10.34100768
867,10.32511625
868,10.29965461
869,10.26621658
870,10.22656469
871,10.23303269
872,10.22741392
873,10.20235913
874,10.17739951
875,10.11931184
876,10.12477474
877,10.10806701
878,10.03566251
879,10.04256543
880,10.00106446
881,10.04077879
882,9.992148683
883,9.99237118
884,9.930575103
885,9.898814327
886,9.929905989
887,9.87010455
888,9.846221588
889,9.844366384
890,9.794700029
891,9.812616495
892,9.768324562
893,9.775347284
894,9.783586186
895,9.726636718
896,9.762594828
897,9.740649216
898,9.707625984
899,9.671179135
900,9.705330739
901,9.692927263
902,9.741505211
903,9.719170688
904,9.665354486
905,9.639953563
906,9.633766147
907,9.700231595
908,9.671820831
909,9.68038525
910,9.661022643
911,9.649433521
912,9.671134759
913,9.624673485
914,9.591236061
915,9.570474482
916,9.628341969
917,9.592689564
918,9.628910693
919,9.590493373
920,9.573976587
921,9.564948011
922,9.643986367
923,9.615486588
924,9.610599916
925,9.622718709
926,9.611246987
927,9.621227894
928,9.567746613
929,9.595244035
930,9.620365581
931,9.596927274
932,9.611686725
933,9.627815295
934,9.630679163
935,9.544489707
936,9.548080924
937,9.581272339
938,9.686159592
939,9.576894473
940,9.57200677
941,9.616671934
942,9.605795096
943,9.623037693
944,9.62160188
945,9.566475034
946,9.610440699
947,9.644604635
948,9.612083712
949,9.572456276
950,9.598896803
951,9.59610263
952,9.589671749
953,9.600069929
954,9.630131814
955,9.579340518
956,9.614368309
957,9.622000224
958,9.619837609
959,9.546235069
960,9.58193633
961,9.573639731
962,9.649928401
963,9.607240866
964,9.609121949
965,9.652762445
966,9.640091179
967,9.606529738
968,9.598034929
969,9.654830382
970,9.538595708
971,9.627036921
972,9.647175259
973,9.563817094
974,9.536694966
975,9.59737484
976,9.585223844
977,9.624217594
978,9.569314461
979,9.618794515
980,9.65787176
981,9.565413455
982,9.601662616
983,9.56597148
984,9.55920058
985,9.613810976
986,9.560225925
987,9.586057243
988,9.650595436
989,9.612647039
990,9.592870974
991,9.562200325
992,9.622393744
993,9.631488788
994,9.565655586
995,9.616036755
996,9.580995895
997,9.569871929
998,9.553828904
999,9.614033353
1000,9.589412774
1001,9.642974206
1002,9.538033431
1003,9.660085778
1004,9.593784394
1005,9.634989028
1006,9.574958071
1007,9.619997874
1008,9.549879085
1009,9.624359254
1010,9.593492326
1011,9.580375095
1012,9.596871049
1013,9.599248347
1014,9.597406689
1015,9.579920752
1016,9.593824847
1017,9.648263973
1018,9.657526813
1019,9.550416899
1020,9.619132766
1021,9.617989872
1022,9.635232744
1023,9.618102853
1024,9.622546797
1025,9.53462984
1026,9.644246322
1027,9.607466205
1028,9.61655726
1029,9.609348133
1030,9.643097883
1031,9.625532458
1032,9.566360533
1033,9.563092023
1034,9.596795906
1035,9.649707872
1036,9.559060465
1037,9.564134334
1038,9.611769021
1039,9.598870936
1040,9.578138391
1041,9.611531496
1042,9.586594015
1043,9.595685695
1044,9.623038879
1045,9.590299701
1046,9.594304637
1047,9.55836377
1048,9.628393671
1049,9.622382561
1050,9.578726936
1051,9.610896837
1052,9.621711787
1053,9.609229972
1054,9.60200399
1055,9.614471407
1056,9.592346146
1057,9.630415987
1058,9.605495044
1059,9.612181916
1060,9.658328853
1061,9.612953688
1062,9.581697514
1063,9.623540253
1064,9.629416463
1065,9.576929589
1066,9.601233095
1067,9.550984304
1068,9.615233453
1069,9.579188009
1070,9.613572326
1071,9.621063534
1072,9.632851905
1073,9.590577152
1074,9.621227834
1075,9.615386961
1076,9.604254874
1077,9.620803464
1078,9.585545353
1079,9.577839569
1080,9.571180889
1081,9.57750341
1082,9.64107585
1083,9.580671674
1084,9.554303834
1085,9.584285685
1086,9.596006844
1087,9.591183895
1088,9.568316243
1089,9.590051556
1090,9.577840793
1091,9.612342087
1092,9.644310327
1093,9.569809563
1094,9.563432647
1095,9.55174379
1096,9.576716382
1097,9.571125626
1098,9.578679778
1099,9.578953736
1100,9.58548833
1101,9.602724007
1102,9.568275236
1103,9.600456074
1104,9.66078391
1105,9.601172866
1106,9.658644932
1107,9.49984137
1108,9.58784202
1109,9.610075526
1110,9.578664696
1111,9.634906732
1112,9.601346108
1113,9.588948807
1114,9.602073816
1115,9.637675505
1116,9.615019117
1117,9.671509927
1118,9.614655191
1119,9.61162468
1120,9.531707724
1121,9.585019653
1122,9.669853936
1123,9.60280103
1124,9.610853166
1125,9.578320528
1126,9.593499896
1127,9.618189123
1128,9.569206236
1129,9.594319933
1130,9.580340362
1131,9.524392423
1132,9.539065664
1133,9.643690777
1134,9.608013181
1135,9.567455885
1136,9.611947548
1137,9.598169273
1138,9.586230816
1139,9.569956967
1140,9.633581172
1141,9.615978346
1142,9.590977345
1143,9.619874899
1144,9.598844794
1145,9.667478756
1146,9.606562272
1147,9.617857266
1148,9.608606185
1149,9.654747287
1150,9.632739804
1151,9.594100793
1152,9.565259566
1153,9.606873742
1154,9.622011701
1155,9.647927256
1156,9.624285894
1157,9.62519521
1158,9.565018494
1159,9.634785994
1160,9.628399285
1161,9.608244849
1162,9.603562775
1163,9.544231961
1164,9.631060428
1165,9.615311158
1166,9.613593059
1167,9.626579782
1168,9.617264958
1169,9.600182719
1170,9.533785769
1171,9.573125764
1172,9.581034477
1173,9.582315448
1174,9.644471716
1175,9.615995409
1176,9.547509605
1177,9.683964172
1178,9.583587343
1179,9.649276535
1180,9.562795723
1181,9.638882311
1182,9.607324176
1183,9.539489658
1184,9.62340518
1185,9.637332148
1186,9.599731894
1187,9.576395859
1188,9.599029165
1189,9.599412257
1190,9.602972256
1191,9.541252873
1192,9.562142654
1193,9.574748533
1194,9.557486145
1195,9.54071598
1196,9.643821007
1197,9.627343324
1198,9.627944474
1199,9.673440648
1200,9.601828845
1201,9.640380501
1202,9.585038462
1203,9.643004364
1204,9.64925222
1205,9.592912329
1206,9.624004887
1207,9.614512716
1208,9.605443686
1209,9.564269221
1210,9.609317373
1211,9.60974778
1212,9.625436691
1213,9.62721106
1214,9.562024583
1215,9.61664915
1216,9.599999492
1217,9.642264742
1218,9.564914287
1219,9.601159409
1220,9.588654574
1221,9.583598239
1222,9.557612841
1223,9.593564698
1224,9.617816465
1225,9.597587479
1226,9.639138784
1227,9.58021341
1228,9.629726513
1229,9.586050244
1230,9.591168371
1231,9.61663585
1232,9.601055934
1233,9.61052165
1234,9.607635125
1235,9.599563486
1236,9.566800755
1237,9.635075095
1238,9.574296156
1239,9.629621109
1240,9.550043701
1241,9.591332356
1242,9.601916971
1243,9.611689195
1244,9.578996088
1245,9.638832869
1246,9.588383034
1247,9.620291584
1248,9.611180513
1249,9.512288061
1250,9.571599234
1251,9.611807942
1252,9.616250647
1253,9.621007106
1254,9.607143518
1255,9.656439392
1256,9.61587038
1257,9.661375141
1258,9.616334032
1259,9.526161579
1260,9.609759014
1261,9.587570545
1262,9.641437036
1263,9.64676198
1264,9.643014681
1265,9.594482013
1266,9.592868468
1267,9.571770482
1268,9.584989488
1269,9.59918262
1270,9.588491339
1271,9.606174801
1272,9.63158912
1273,9.632253007
1274,9.627506858
1275,9.616408113
1276,9.534796194
1277,9.621657951
1278,9.625765176
1279,9.54390376
1280,9.621244859
1281,9.586744315
1282,9.601285077
1283,9.54003288
1284,9.579827301
1285,9.611755639
1286,9.590668626
1287,9.669133801
1288,9.587861827
1289,9.593447561
1290,9.606166919
1291,9.581242535
1292,9.628426885
1293,9.627491738
1294,9.590275948
1295,9.623788668
1296,9.539837149
1297,9.630875359
1298,9.533146319
1299,9.629700545
1300,9.580867278
1301,9.58692458
1302,9.649381172
1303,9.599580477
1304,9.609095455
1305,9.57174694
1306,9.557651205
1307,9.603969131
1308,9.657378342
1309,9.563352169
1310,9.614007595
1311,9.62662021
1312,9.591694915
1313,9.587242971
1314,9.579229932
1315,9.629916673
1316,9.642916411
1317,9.597149923
1318,9.605972943
1319,9.601369995
1320,9.606142435
1321,9.617734829
1322,9.551139846
1323,9.608510199
1324,9.599155487
1325,9.589231126
1326,9.576023055
1327,9.617087505
1328,9.58497824
1329,9.622437597
1330,9.605057494
1331,9.644501384
1332,9.576989449
1333,9.619568691
1334,9.611660606
1335,9.582488675
1336,9.599003238
1337,9.571488467
1338,9.622573775
1339,9.553667841
1340,9.583264875
1341,9.597791618
1342,9.579458185
1343,9.569289486
1344,9.578337025
1345,9.625148521
1346,9.630006328
1347,9.672631735
1348,9.599801888
1349,9.66656006
1350,9.660108135
1351,9.608807024
1352,9.574207157
1353,9.58386374
1354,9.572873499
1355,9.594228236
1356,9.577159627
1357,9.60183286
1358,9.614411797
1359,9.567528823
1360,9.627339049
1361,9.584846602
1362,9.631586477
1363,9.58374662
1364,9.540618451
1365,9.63614804
1366,9.572837501
1367,9.584004914
1368,9.590305949
1369,9.617616989
1370,9.55449694
1371,9.641277965
1372,9.584798082
1373,9.592492016
1374,9.570769549
1375,9.587995968
1376,9.627790431
1377,9.60891923
1378,9.598023052
1379,9.6236261
1380,9.623744636
1381,9.537335511
1382,9.560695021
1383,9.574560729
1384,9.619443802
1385,9.662623912
1386,9.584152652
1387,9.56516866
1388,9.664451371
1389,9.694689169
1390,9.559224124
1391,9.558531139
1392,9.62535712
1393,9.623476344
1394,9.644968425
1395,9.581205008
1396,9.622643265
1397,9.496143217
1398,9.596096865
1399,9.59858943
1400,9.57839747
1401,9.608742836
1402,9.592132525
1403,9.613434151
1404,9.589703508
1405,9.637378118
1406,9.582589184
1407,9.550001552
1408,9.555376499
1409,9.563707388
1410,9.58763805
1411,9.593714303
1412,9.641381806
1413,9.560507676
1414,9.58753659
1415,9.57378808
1416,9.604200535
1417,9.590615798
1418,9.59001211
1419,9.574105636
1420,9.571487006
1421,9.604175872
1422,9.646361572
1423,9.593253995
1424,9.585915745
1425,9.649287321
1426,9.639605857
1427,9.582121668
1428,9.616185575
1429,9.607365006
1430,9.629555161
1431,9.615838896
1432,9.63887327
1433,9.622948386
1434,9.580914607
1435,9.604024512
1436,9.613712018
1437,9.540906866
1438,9.609130268
1439,9.620926295
1440,9.641778855
1441,9.568277995
1442,9.579238862
1443,9.577101621
1444,9.592743344
1445,9.64737412
1446,9.660916834
1447,9.621187136
1448,9.596608256
1449,9.620100159
1450,9.581810824
1451,9.577871495
1452,9.646439888
1453,9.58411723
1454,9.608036281
1455,9.636300933
1456,9.598983803
1457,9.671060767
1458,9.562621762
1459,9.599924644
1460,9.55846189
1461,9.605937734
1462,9.579506226
1463,9.540159126
1464,9.623586138
1465,9.609977168
1466,9.59655593
1467,9.584400094
1468,9.564592709
1469,9.572394133
1470,9.62637226
1471,9.603179835
1472,9.59125751
1473,9.578426499
1474,9.590296264
1475,9.593194112
1476,9.575104646
1477,9.617299053
1478,9.667324925
1479,9.548510746
1480,9.584738462
1481,9.613993103
1482,9.588571563
1483,9.5787348
1484,9.604119341
1485,9.575133013
1486,9.587441594
1487,9.587873578
1488,9.584583643
1489,9.539323981
1490,9.625883969
1491,9.58245185
1492,9.579417913
1493,9.557174291
1494,9.588594989
1495,9.558285197
1496,9.600604896
1497,9.598194897
1498,9.546595279
1499,9.588378693
1500,9.63077039
1501,9.575323325
1502,9.596750617
1503,9.595122547
1504,9.624663445
1505,9.577719091
1506,9.634053037
1507,9.588019129
1508,9.591673591
1509,9.599747144
1510,9.577589952
1511,9.607651556
1512,9.661948289
1513,9.585515436
1514,9.578922911
1515,9.57759597
1516,9.614753967
1517,9.629010765
1518,9.630876111
1519,9.536472187
1520,9.597889642
1521,9.616435423
1522,9.628087773
1523,9.588217127
1524,9.627200165
1525,9.550839896
1526,9.623806807
1527,9.557062314
1528,9.582187191
1529,9.601043885
1530,9.610165531
1531,9.59353684
1532,9.591882558
1533,9.618258282
1534,9.571399124
1535,9.562547569
1536,9.645136307
1537,9.580770155
1538,9.627656381
1539,9.582262475
1540,9.628854297
1541,9.59771719
1542,9.596961537
1543,9.583047685
1544,9.59201095
1545,9.620703338
1546,9.583451274
1547,9.607431201
1548,9.589081584
1549,9.595623981
1550,9.578081167
1551,9.592775175
1552,9.557313135
1553,9.599025182
1554,9.556241939
1555,9.580980896
1556,9.619799836
1557,9.621933595
1558,9.588730484
1559,9.618361268
1560,9.573417953
1561,9.597890096
1562,9.575008511
1563,9.62805268
1564,9.55751932
1565,9.585223138
1566,9.520559975
1567,9.602795364
1568,9.625021782
1569,9.597114001
1570,9.6692612
1571,9.634187596
1572,9.632533752
1573,9.569077826
1574,9.635090242
1575,9.572892146
1576,9.597959102
1577,9.608044304
1578,9.626703735
1579,9.605960847
1580,9.576202764
1581,9.561400642
1582,9.575985614
1583,9.588389838
1584,9.602964514
1585,9.562579669
1586,9.627033944
1587,9.592810487
1588,9.614960413
1589,9.60433617
1590,9.603992441
1591,9.57741051
1592,9.559815358
1593,9.561469303
1594,9.600797102
1595,9.62991936
1596,9.631999375
1597,9.607523814
1598,9.600689058
1599,9.583733078
1600,9.613921498
1601,9.581324769
1602,9.592400575
1603,9.612149529
1604,9.598818563
1605,9.60831658
1606,9.599115749
1607,9.573322653
1608,9.565776796
1609,9.565399806
1610,9.592945752
1611,9.563550736
1612,9.57447927
1613,9.56230482
1614,9.599172251
1615,9.592635163
1616,9.554272392
1617,9.56915231
1618,9.633698987
1619,9.694381509
1620,9.599995922
1621,9.640902609
1622,9.632951627
1623,9.621549686
1624,9.590013959
1625,9.600749534
1626,9.582898721
1627,9.577230966
1628,9.62392842
1629,9.548124585
1630,9.628854857
1631,9.623237637
1632,9.619461848
1633,9.56943864
1634,9.637975055
1635,9.637302089
1636,9.585740078
1637,9.616778128
1638,9.595241945
1639,9.57209359
1640,9.565832448
1641,9.64960916
1642,9.620004143
1643,9.651710376
1644,9.615330761
1645,9.580578378
1646,9.603647921
1647,9.629941797
1648,9.572013654
1649,9.611140974
1650,9.604347553
1651,9.597955996
1652,9.614876413
1653,9.599980346
1654,9.636543842
1655,9.569433012
1656,9.56109765
1657,9.637911766
1658,9.611056377
1659,9.55602349
1660,9.600760837
1661,9.578986154
1662,9.589196623
1663,9.596326633
1664,9.642488147
1665,9.616122949
1666,9.616224668
1667,9.587304562
1668,9.625679741
1669,9.609947181
1670,9.606522763
1671,9.602111427
1672,9.596335136
1673,9.614597965
1674,9.578789771
1675,9.570953616
1676,9.566274532
1677,9.578254527
1678,9.615996506
1679,9.582047829
1680,9.601419955
1681,9.637915329
1682,9.615540497
1683,9.610509812
1684,9.573421527
1685,9.628034005
1686,9.60783515
1687,9.578726765
1688,9.633668291
1689,9.641338739
1690,9.601951018
1691,9.59843397
1692,9.61396288
1693,9.628114753
1694,9.577754537
1695,9.601079746
1696,9.611403152
1697,9.604908982
1698,9.588819028
1699,9.615530278
1700,9.54032198
1701,9.626211005
1702,9.57991717
1703,9.607380101
1704,9.598955112
1705,9.607519005
1706,9.570413065
1707,9.598139175
1708,9.531157757
1709,9.604081013
1710,9.631641593
1711,9.572768998
1712,9.54468756
1713,9.641656861
1714,9.593805807
1715,9.576652187
1716,9.583747485
1717,9.59183921
1718,9.580581972
1719,9.581160318
1720,9.567464841
1721,9.643877593
1722,9.604524581
1723,9.617891244
1724,9.560247836
1725,9.553628306
1726,9.624587505
1727,9.616151928
1728,9.630667116
1729,9.611724328
1730,9.620306482
1731,9.554020212
1732,9.653737484
1733,9.55753383
1734,9.583390663
1735,9.553833426
1736,9.577750835
1737,9.576577191
1738,9.58601583
1739,9.620840429
1740,9.57352326
1741,9.598505307
1742,9.612728561
1743,9.680717508
1744,9.581715516
1745,9.627956579
1746,9.588281824
1747,9.616221034
1748,9.593774339
1749,9.63964206
1750,9.61556974
1751,9.595335742
1752,9.62196142
1753,9.629038718
1754,9.643505512
1755,9.581935727
1756,9.62154444
1757,9.598179488
1758,9.58164403
1759,9.577731713
1760,9.643027569
1761,9.563361779
1762,9.568191297
1763,9.652617905
1764,9.599888268
1765,9.616662645
1766,9.607256308
1767,9.544148067
1768,9.56661458
1769,9.597576052
1770,9.584581258
1771,9.587611538
1772,9.623611647
1773,9.636396973
1774,9.593168791
1775,9.577869179
1776,9.622105769
1777,9.626544058
1778,9.651558981
1779,9.628140854
1780,9.571165644
1781,9.537847004
1782,9.561450404
1783,9.599885126
1784,9.575189429
1785,9.59469224
1786,9.601416167
1787,9.665465167
1788,9.622460994
1789,9.591562111
1790,9.620715547
1791,9.627387945
1792,9.590853226
1793,9.632152353
1794,9.581522665
1795,9.598118329
1796,9.567084269
1797,9.5944303
1798,9.58094776
1799,9.570504075
1800,9.607810598
1801,9.605997414
1802,9.621565361
1803,9.65050332
1804,9.644864391
1805,9.624035094
1806,9.630183393
1807,9.548931754
1808,9.569827478
1809,9.589103274
1810,9.544504889
1811,9.578718699
1812,9.61516552
1813,9.589312387
1814,9.592830738
1815,9.61241555
1816,9.613554807
1817,9.605643429
1818,9.582088879
1819,9.601359458
1820,9.605408265
1821,9.586053154
1822,9.585294443
1823,9.62008186
1824,9.56573559
1825,9.567745759
1826,9.599044252
1827,9.639361311
1828,9.595195748
1829,9.61112597
1830,9.609800082
1831,9.638185275
1832,9.630342283
1833,9.605635773
1834,9.601677358
1835,9.535912242
1836,9.57485759
1837,9.558493355
1838,9.58654312
1839,9.59204849
1840,9.603277282
1841,9.591075253
1842,9.602972061
1843,9.621842161
1844,9.493742314
1845,9.599971199
1846,9.617679695
1847,9.580749962
1848,9.577104347
1849,9.594836452
1850,9.593897072
1851,9.61923682
1852,9.633202366
1853,9.637850999
1854,9.63474984
1855,9.676848026
1856,9.602962481
1857,9.628487213
1858,9.621466184
1859,9.611689582
1860,9.64626984
1861,9.651981685
1862,9.636621855
1863,9.591919674
1864,9.610290328
1865,9.605102601
1866,9.642486188
1867,9.616363321
1868,9.566228487
1869,9.62390583
1870,9.550582156
1871,9.667642455
1872,9.623151689
1873,9.625245258
1874,9.601043921
1875,9.611182721
1876,9.617599003
1877,9.606923651
1878,9.617014774
1879,9.569527014
1880,9.571377934
1881,9.631397357
1882,9.632126152
1883,9.581893323
1884,9.589950862
1885,9.588071847
1886,9.594146143
1887,9.583633952
1888,9.596016287
1889,9.601151905
1890,9.623371657
1891,9.571184645
1892,9.606450011
1893,9.577416018
1894,9.599038366
1895,9.59228209
1896,9.62518768
1897,9.615433962
1898,9.613768635
1899,9.594702639
1900,9.575277643
1901,9.635552564
1902,9.581586062
1903,9.555830819
1904,9.644006259
1905,9.661626052
1906,9.577067209
1907,9.589689026
1908,9.63478098
1909,9.582412514
1910,9.587378526
1911,9.578986655
1912,9.54754049
1913,9.601662836
1914,9.597740567
1915,9.62878113
1916,9.616993785
1917,9.629801631
1918,9.612511967
1919,9.533556858
1920,9.590708543
1921,9.588687194
1922,9.534797504
1923,9.614106204
1924,9.702930397
1925,9.587635348
1926,9.540057009
1927,9.590411379
1928,9.575291584
1929,9.568037434
1930,9.56819784
1931,9.590782486
1932,9.58259512
1933,9.627742234
1934,9.579575083
1935,9.647702013
1936,9.583530489
1937,9.594475792
1938,9.582228201
1939,9.564987431
1940,9.520268493
1941,9.575676715
1942,9.610445134
1943,9.609677384
1944,9.616676233
1945,9.614156276
1946,9.588435321
1947,9.65727893
1948,9.568233374
1949,9.599140123
1950,9.586190057
1951,9.584034762
1952,9.564831982
1953,9.584346198
1954,9.625782597
1955,9.535008459
1956,9.604284164
1957,9.571174788
1958,9.661254017
1959,9.576571424
1960,9.606002824
1961,9.592114213
1962,9.585836266
1963,9.643291091
1964,9.576146079
1965,9.604741703
1966,9.631774872
1967,9.566921663
1968,9.547383471
1969,9.591722106
1970,9.555067458
1971,9.619116377
1972,9.608193861
1973,9.56110043
1974,9.581184592
1975,9.601546169
1976,9.586569709
1977,9.58836521
1978,9.590379768
1979,9.618626134
1980,9.621356374
1981,9.627542045
1982,9.637391399
1983,9.551657318
1984,9.602533515
1985,9.569660214
1986,9.631491247
1987,9.583171994
1988,9.618271072
1989,9.576082276
1990,9.621103431
1991,9.548163333
1992,9.618635071
1993,9.551691936
1994,9.563459284
1995,9.599297075
1996,9.650780435
1997,9.627532896
1998,9.579493884
1999,9.585643999
2000,9.586027394
2001,9.553239737
2002,9.553790129
2003,9.61570233
2004,9.573599852
2005,9.590128338
2006,9.581542803
2007,9.646751999
2008,9.546814121
2009,9.55666955
2010,9.602411493
2011,9.63996748
2012,9.58638839
2013,9.601523104
2014,9.584910145
2015,9.617543023
2016,9.602230857
2017,9.554766065
2018,9.563491083
2019,9.579868981
2020,9.583308944
2021,9.576888668
2022,9.641675695
2023,9.603324358
2024,9.564484578
2025,9.594820274
2026,9.607523394
2027,9.592706192
2028,9.629374747
2029,9.633934899
2030,9.614662134
2031,9.599908542
2032,9.585806746
2033,9.598975701
2034,9.602209235
2035,9.581045422
2036,9.577628454
2037,9.616203874
2038,9.636966528
2039,9.591088898
2040,9.609976277
2041,9.601655777
2042,9.67457856
2043,9.598299617
2044,9.58632408
2045,9.587027036
2046,9.642554443
2047,9.60365227
2048,9.681569859
2049,9.585269264
2050,9.569736552
2051,9.635090253
2052,9.601352297
2053,9.589414096
2054,9.628090252
2055,9.536614528
2056,9.607910734
2057,9.623450587
2058,9.574601902
2059,9.666843702
2060,9.614001961
2061,9.606121844
2062,9.577953807
2063,9.575407208
2064,9.579885876
2065,9.572928748
2066,9.575889321
2067,9.626054809
2068,9.615708456
2069,9.618425687
2070,9.607638118
2071,9.610442781
2072,9.597178299
2073,9.580828973
2074,9.580555261
2075,9.592912765
2076,9.595971578
2077,9.649956324
2078,9.622049095
2079,9.623620922
2080,9.572784749
2081,9.568913454
2082,9.609520582
2083,9.624030045
2084,9.660421147
2085,9.612799147
2086,9.580341714
2087,9.585819851
2088,9.618775843
2089,9.557483813
2090,9.593075137
2091,9.611315507
2092,9.614466673
2093,9.644195891
2094,9.614143782
2095,9.595865901
2096,9.56852627
2097,9.644670677
2098,9.648829879
2099,9.564542458
2100,9.628562675
2101,9.583517633
2102,9.586467067
2103,9.632910193
2104,9.607408624
2105,9.584808453
2106,9.62269576
2107,9.599968343
2108,9.529907141
2109,9.633651479
2110,9.583760058
2111,9.573668721
2112,9.604652399
2113,9.589376843
2114,9.595823486
2115,9.588720057
2116,9.623953277
2117,9.633324454
2118,9.599615232
2119,9.599149425
2120,9.614413139
2121,9.65184248
2122,9.545407523
2123,9.596646191
2124,9.599240364
2125,9.609207806
2126,9.615452388
2127,9.629371835
2128,9.608065487
2129,9.631390407
2130,9.626578343
2131,9.618598664
2132,9.620100446
2133,9.592895832
2134,9.626080945
2135,9.589091214
2136,9.622194882
2137,9.607645297
2138,9.593053711
2139,9.577606663
2140,9.629682898
2141,9.553342317
2142,9.595505344
2143,9.584555467
2144,9.53771713
2145,9.590084256
2146,9.610137233
2147,9.605663003
2148,9.568077575
2149,9.644053039
2150,9.652774427
2151,9.575464936
2152,9.61154886
2153,9.630323863
2154,9.613269642
2155,9.575594286
2156,9.534006866
2157,9.632755201
2158,9.547757168
2159,9.584569683
2160,9.610505134
2161,9.556797945
2162,9.620581256
2163,9.527722099
2164,9.657932045
2165,9.605434667
2166,9.605487165
2167,9.560661176
2168,9.517590068
2169,9.568490591
2170,9.601697331
2171,9.58410074
2172,9.564401036
2173,9.651220634
2174,9.64081268
2175,9.526800648
2176,9.618363383
2177,9.580725999
2178,9.594080581
2179,9.671212135
2180,9.593648574
2181,9.621886843
2182,9.636063851
2183,9.625014541
2184,9.612234572
2185,9.620015309
2186,9.591878308
2187,9.617913005
2188,9.582249345
2189,9.597380906
2190,9.6324773
2191,9.583831184
2192,9.551045958
2193,9.581837639
2194,9.617488728
2195,9.607618008
2196,9.599843317
2197,9.521911058
2198,9.568418772
2199,9.592644403
2200,9.65975941
2201,9.601154657
2202,9.555752106
2203,9.580681692
2204,9.612881282
2205,9.550988213
2206,9.57699018
2207,9.554110609
2208,9.568104047
2209,9.594689318
2210,9.59487562
2211,9.602027392
2212,9.600868547
2213,9.632210621
2214,9.646300745
2215,9.622098643
2216,9.617820164
2217,9.606550247
2218,9.595325173
2219,9.601982663
2220,9.611328493
2221,9.613697217
2222,9.627264631
2223,9.570611452
2224,9.616232656
2225,9.61468432
2226,9.597297852
2227,9.632490625
2228,9.613680178
2229,9.627933884
2230,9.615446505
2231,9.656869948
2232,9.552242641
2233,9.601396483
2234,9.514327269
2235,9.619412689
2236,9.613847469
2237,9.594258204
2238,9.608576697
2239,9.612234734
2240,9.631326817
2241,9.592537926
2242,9.568381459
2243,9.663161739
2244,9.588732454
2245,9.625069054
2246,9.661949962
2247,9.582349052
2248,9.632524605
2249,9.5870671
2250,9.524371734
2251,9.565421341
2252,9.603258903
2253,9.567182424
2254,9.643197495
2255,9.57311128
2256,9.659953812
2257,9.570456738
2258,9.613753743
2259,9.560875338
2260,9.570053115
2261,9.591736052
2262,9.56207603
2263,9.633444167
2264,9.587095008
2265,9.563918467
2266,9.599525707
2267,9.572319129
2268,9.571261357
2269,9.575847049
2270,9.66288006
2271,9.649705238
2272,9.559043838
2273,9.685604609
2274,9.593767213
2275,9.622309297
2276,9.664641379
2277,9.636141318
2278,9.587072466
2279,9.595759586
2280,9.575733689
2281,9.616080901
2282,9.566737869
2283,9.610405096
2284,9.612292528
2285,9.630960112
2286,9.65298476
2287,9.55666067
2288,9.617373675
2289,9.584905013
2290,9.609173692
2291,9.609814434
2292,9.593491784
2293,9.587731488
2294,9.624523935
2295,9.553347488
2296,9.616157081
2297,9.609967232
2298,9.611212527
2299,9.599914096
2300,9.596848285
2301,9.559807774
2302,9.649987405
2303,9.582385116
2304,9.607700388
2305,9.641904923
2306,9.621263917
2307,9.590834549
2308,9.625423596
2309,9.60456489
2310,9.630735961
2311,9.592185238
2312,9.608727645
2313,9.646280903
2314,9.574323781
2315,9.589818594
2316,9.631739329
2317,9.565067144
2318,9.584045319
2319,9.614681311
2320,9.555186338
2321,9.577368181
2322,9.638859446
2323,9.599809711
2324,9.592719108
2325,9.613849061
2326,9.621260052
2327,9.666387804
2328,9.597576851
2329,9.644633861
2330,9.620233812
2331,9.605171727
2332,9.578837142
2333,9.59152563
2334,9.613436888
2335,9.637375456
2336,9.581466281
2337,9.568091612
2338,9.548699588
2339,9.600576462
2340,9.612034166
2341,9.622573414
2342,9.586430223
2343,9.553421245
2344,9.602348209
2345,9.577253027
2346,9.618046918
2347,9.577708111
2348,9.637409412
2349,9.53880428
2350,9.535501996
2351,9.610886796
2352,9.562925948
2353,9.645977667
2354,9.656653605
2355,9.611087858
2356,9.605080773
2357,9.590580049
2358,9.602237471
2359,9.642960056
2360,9.532572035
2361,9.493770874
2362,9.609509486
2363,9.576027931
2364,9.570815978
2365,9.606906125
2366,9.597479273
2367,9.595894917
2368,9.6177435
2369,9.624445064
2370,9.588307895
2371,9.570068983
2372,9.614173744
2373,9.629288592
2374,9.607213278
2375,9.586706787
2376,9.622946815
2377,9.612684309
2378,9.62027322
2379,9.609476316
2380,9.630184857
2381,9.601853617
2382,9.627395719
2383,9.561345342
2384,9.603986615
2385,9.637729228
2386,9.605311049
2387,9.638486026
2388,9.572421253
2389,9.612988052
2390,9.586013462
2391,9.645784071
2392,9.608204684
2393,9.621695297
2394,9.631352635
2395,9.618145217
2396,9.611022114
2397,9.572670383
2398,9.53466282
2399,9.57621305
2400,9.602730629
2401,9.622849927
2402,9.581480843
2403,9.648339476
2404,9.581579369
2405,9.574215866
2406,9.554024843
2407,9.627887581
2408,9.593251943
2409,9.554208161
2410,9.590645429
2411,9.579030783
2412,9.612816351
2413,9.608363131
2414,9.577399686
2415,9.587546234
2416,9.613263507
2417,9.576747477
2418,9.641279133
2419,9.596088736
2420,9.516047373
2421,9.603705111
2422,9.606457965
2423,9.582603453
2424,9.615436005
2425,9.604514107
2426,9.611977355
2427,9.596636296
2428,9.622529522
2429,9.608577524
2430,9.64862791
2431,9.634928721
2432,9.572915219
2433,9.559059354
2434,9.556761754
2435,9.581742057
2436,9.632285634
2437,9.616499915
2438,9.579559568
2439,9.622595627
2440,9.59975115
2441,9.588830265
2442,9.606900124
2443,9.604277132
2444,9.617651856
2445,9.590137606
2446,9.546135751
2447,9.550712123
2448,9.587768841
2449,9.607570465
2450,9.576864084
2451,9.626175531
2452,9.566075545
2453,9.603527201
2454,9.591086889
2455,9.613843923
2456,9.608843908
2457,9.584605511
2458,9.6871759
2459,9.609247151
2460,9.5929223
2461,9.595918427
2462,9.60390394
2463,9.615927428
2464,9.633455443
2465,9.613785664
2466,9.613811081
2467,9.622570269
2468,9.615019897
2469,9.684023895
2470,9.589704119
2471,9.606092474
2472,9.578390935
2473,9.616827822
2474,9.587045612
2475,9.615161875
2476,9.56116104
2477,9.595959118
2478,9.550476023
2479,9.60435826
2480,9.669130977
2481,9.567823419
2482,9.592218603
2483,9.594001113
2484,9.590683321
2485,9.571695132
2486,9.575279705
2487,9.665425407
2488,9.567770651
2489,9.620048257
2490,9.592562889
2491,9.672151521
2492,9.5554981
2493,9.556741782
2494,9.650343269
2495,9.589099182
2496,9.605729407
2497,9.525060637
2498,9.583065202
2499,9.588539488
2500,9.556439571
2501,9.619929014
2502,9.613833536
2503,9.644521188
2504,9.590058953
2505,9.603597043
2506,9.600844231
2507,9.566600711
2508,9.609967619
2509,9.593501309
2510,9.652319238
2511,9.639501701
2512,9.563493604
2513,9.623518948
2514,9.602624292
2515,9.623175995
2516,9.618059112
2517,9.613687247
2518,9.561283577
2519,9.573429414
2520,9.580884282
2521,9.677690862
2522,9.593374145
2523,9.591958638
2524,9.617534229
2525,9.586041009
2526,9.634653696
2527,9.630020634
2528,9.591807335
2529,9.574585191
2530,9.574814225
2531,9.576256316
2532,9.604535051
2533,9.548859067
2534,9.622157243
2535,9.622453835
2536,9.561624654
2537,9.579595987
2538,9.596767649
2539,9.610963226
2540,9.591273303
2541,9.550131949
2542,9.580310094
2543,9.574687422
2544,9.638040925
2545,9.620246225
2546,9.624306738
2547,9.578516068
2548,9.619295884
2549,9.594808695
2550,9.58446874
2551,9.619445146
2552,9.610175126
2553,9.619322561
2554,9.626699029
2555,9.604339365
2556,9.592602173
2557,9.60528444
2558,9.663387457
2559,9.611411128
2560,9.646484639
2561,9.568021256
2562,9.655041871
2563,9.508874999
2564,9.562675872
2565,9.613304708
2566,9.556795755
2567,9.593185845
2568,9.557207498
2569,9.578497404
2570,9.576226951
2571,9.604364871
2572,9.620414647
2573,9.57520097
2574,9.591820763
2575,9.619307557
2576,9.588725743
2577,9.566833192
2578,9.60080224
2579,9.658498794
2580,9.565153699
2581,9.600559788
2582,9.588891932
2583,9.614716157
2584,9.590489951
2585,9.586852003
2586,9.622959435
2587,9.57087507
2588,9.606919637
2589,9.604404814
2590,9.560308233
2591,9.62021019
2592,9.589213218
2593,9.624229282
2594,9.613405357
2595,9.64475672
2596,9.572291669
2597,9.581465401
2598,9.606983194
2599,9.63941693
2600,9.575423039
2601,9.572423395
2602,9.627185365
2603,9.590499173
2604,9.608328165
2605,9.571593108
2606,9.592513526
2607,9.640002868
2608,9.576138645
2609,9.617431181
2610,9.628823507
2611,9.564323632
2612,9.578934505
2613,9.553307735
2614,9.618425852
2615,9.644346171
2616,9.59143885
2617,9.595754672
2618,9.610016382
2619,9.611369461
2620,9.609687552
2621,9.59491984
2622,9.589112366
2623,9.617132923
2624,9.63657245
2625,9.612792003
2626,9.592767006
2627,9.600242172
2628,9.608849278
2629,9.62917174
2630,9.56480707
2631,9.613206534
2632,9.580567882
2633,9.629200587
2634,9.600209333
2635,9.655910955
2636,9.633933304
2637,9.580423969
2638,9.56272722
2639,9.628303073
2640,9.580664881
2641,9.568205537
2642,9.575683004
2643,9.572411207
2644,9.627194011
2645,9.545869774
2646,9.61235088
2647,9.535065769
2648,9.639212116
2649,9.631976013
2650,9.588927984
2651,9.579139492
2652,9.598317733
2653,9.602642036
2654,9.618213429
2655,9.650142331
2656,9.595197335
2657,9.644236293
2658,9.596043279
2659,9.608022602
2660,9.595197528
2661,9.595853651
2662,9.625503826
2663,9.597637933
2664,9.622229783
2665,9.587209344
2666,9.578292615
2667,9.581896052
2668,9.567274274
2669,9.691640528
2670,9.602408199
2671,9.576825945
2672,9.636050557
2673,9.568522292
2674,9.643762057
2675,9.637343282
2676,9.614148074
2677,9.578166075
2678,9.587900973
2679,9.584510464
2680,9.656779217
2681,9.583137547
2682,9.642495749
2683,9.6205786
2684,9.605880154
2685,9.611899987
2686,9.614434194
2687,9.639706424
2688,9.559061216
2689,9.585735021
2690,9.597390603
2691,9.596528151
2692,9.617611575
2693,9.635017652
2694,9.596432724
2695,9.613637428
2696,9.627336299
2697,9.60847786
2698,9.620717903
2699,9.572557644
2700,9.605499561
2701,9.605989314
2702,9.55984356
2703,9.584454252
2704,9.59332408
2705,9.637599258
2706,9.6017396
2707,9.562161864
2708,9.610903714
2709,9.570612971
2710,9.600000649
2711,9.57480249
2712,9.635235396
2713,9.587619413
2714,9.593392291
2715,9.645038539
2716,9.590906267
2717,9.604980723
2718,9.591214414
2719,9.572128127
2720,9.579347033
2721,9.646561568
2722,9.579136406
2723,9.581544277
2724,9.613686963
2725,9.606163616
2726,9.609397545
2727,9.617038152
2728,9.637352389
2729,9.695371908
2730,9.589757027
2731,9.554104738
2732,9.550643458
2733,9.5686596
2734,9.611337078
2735,9.561049516
2736,9.580515222
2737,9.626603494
2738,9.57647459
2739,9.545064161
2740,9.624962327
2741,9.623532949
2742,9.632200313
2743,9.578869599
2744,9.565078271
2745,9.571079172
2746,9.565175402
2747,9.578725357
2748,9.532836489
2749,9.627354554
2750,9.588142156
2751,9.587463603
2752,9.606935758
2753,9.524593417
2754,9.597948317
2755,9.607773542
2756,9.60226181
2757,9.585850187
2758,9.605050453
2759,9.566950692
2760,9.557082741
2761,9.619593005
2762,9.587755968
2763,9.570531091
2764,9.597325119
2765,9.577634594
2766,9.564644724
2767,9.608377546
2768,9.585658459
2769,9.558990199
2770,9.585134829
2771,9.606629139
2772,9.598079954
2773,9.586329316
2774,9.601500005
2775,9.593002337
2776,9.57774216
2777,9.615457477
2778,9.5990915
2779,9.582666526
2780,9.589098805
2781,9.561304494
2782,9.645363242
2783,9.594169451
2784,9.623856711
2785,9.559318227
2786,9.600274512
2787,9.572912556
2788,9.586146832
2789,9.570853532
2790,9.601082384
2791,9.609226
2792,9.586108745
2793,9.635770641
2794,9.565480672
2795,9.676121323
2796,9.584362785
2797,9.605021473
2798,9.647070539
2799,9.588754847
2800,9.588479331
2801,9.591248931
2802,9.598388617
2803,9.576202172
2804,9.5925878
2805,9.617090189
2806,9.605555118
2807,9.595559703
2808,9.64048971
2809,9.590381989
2810,9.566689952
2811,9.635472432
2812,9.586122895
2813,9.618704554
2814,9.578657519
2815,9.570249506
2816,9.623350704
2817,9.637884034
2818,9.610882313
2819,9.603927366
2820,9.542972953
2821,9.559104377
2822,9.592285737
2823,9.584565062
2824,9.562972958
2825,9.578844687
2826,9.63193785
2827,9.620643141
2828,9.609632192
2829,9.584171183
2830,9.56214268
2831,9.59500224
2832,9.608799377
2833,9.557870665
2834,9.61737826
2835,9.625792469
2836,9.585945355
2837,9.58741265
2838,9.654987532
2839,9.548645639
2840,9.581208903
2841,9.519501929
2842,9.597565107
2843,9.589329829
2844,9.653207119
2845,9.658024143
2846,9.611564131
2847,9.577271112
2848,9.606340969
2849,9.572263462
2850,9.655500984
2851,9.603815907
2852,9.647638864
2853,9.562714385
2854,9.60047137
2855,9.557091372
2856,9.658099075
2857,9.617345388
2858,9.599901891
2859,9.64514143
2860,9.600235405
2861,9.557997219
2862,9.605791973
2863,9.593393737
2864,9.581893219
2865,9.57628792
2866,9.62340955
2867,9.618544467
2868,9.589079219
2869,9.565900735
2870,9.61574124
2871,9.579244141
2872,9.547970366
2873,9.548940846
2874,9.5829952
2875,9.606154018
2876,9.570039915
2877,9.605994466
2878,9.621432858
2879,9.569417793
2880,9.598990411
2881,9.594530994
2882,9.567928118
2883,9.62100682
2884,9.616095828
2885,9.636743074
2886,9.618526206
2887,9.647677564
2888,9.578480081
2889,9.674287065
2890,9.577019073
2891,9.577433338
2892,9.640703507
2893,9.602995765
2894,9.587619758
2895,9.631322531
2896,9.628700948
2897,9.609855944
2898,9.592233402
2899,9.605791393
2900,9.592993705
2901,9.579433645
2902,9.586017335
2903,9.625786195
2904,9.587697986
2905,9.619185206
2906,9.58153512
2907,9.582465245
2908,9.620671234
2909,9.572393283
2910,9.618363742
2911,9.590742203
2912,9.5718627
2913,9.616354881
2914,9.596048968
2915,9.551376878
2916,9.603795947
2917,9.603154011
2918,9.561937977
2919,9.600643109
2920,9.613790222
2921,9.619185616
2922,9.611822107
2923,9.59763612
2924,9.636766867
2925,9.606953366
2926,9.611819719
2927,9.594733426
2928,9.600797134
2929,9.621148731
2930,9.625842174
2931,9.543417119
2932,9.612310751
2933,9.629781265
2934,9.54709072
2935,9.590932585
2936,9.608632578
2937,9.556476907
2938,9.627925652
2939,9.582440384
2940,9.61892628
2941,9.591216603
2942,9.622545837
2943,9.583333318
2944,9.627749153
2945,9.624563599
2946,9.608770625
2947,9.624019249
2948,9.615436546
2949,9.518669741
2950,9.622055301
2951,9.600547116
2952,9.551549256
2953,9.640072691
2954,9.576964012
2955,9.602023758
2956,9.595665396
2957,9.61038764
2958,9.584682126
2959,9.611014633
2960,9.643476827
2961,9.62832126
2962,9.582922813
2963,9.597160111
2964,9.585475964
2965,9.659449875
2966,9.576425742
2967,9.601157264
2968,9.555022008
2969,9.591284169
2970,9.605880679
2971,9.6446872
2972,9.583335281
2973,9.619678136
2974,9.596578806
2975,9.619467132
2976,9.561642644
2977,9.548784328
2978,9.600558059
2979,9.66232019
2980,9.594611739
2981,9.620379981
2982,9.583544024
2983,9.560608442
2984,9.616937711
2985,9.599106386
2986,9.641854672
2987,9.575522765
2988,9.590803146
2989,9.617011012
2990,9.647663786
2991,9.589623693
2992,9.548468689
2993,9.610049544
2994,9.604451005
2995,9.617468306
2996,9.625983015
2997,9.595814204
2998,9.561300838
2999,9.642262017
3000,9.590513961
3001,9.652027143
3002,9.605444786
3003,9.607027801
3004,9.617912929
3005,9.599668204
3006,9.600855366
3007,9.588306102
3008,9.548468837
3009,9.602278249
3010,9.588421034
3011,9.581964756
3012,9.643235687
3013,9.557155243
3014,9.570201244
3015,9.631377885
3016,9.609025676
3017,9.591776507
3018,9.700579266
3019,9.613399235
3020,9.627551184
3021,9.621656308
3022,9.63843329
3023,9.599469455
3024,9.610210115
3025,9.601178739
3026,9.559709073
3027,9.612708968
3028,9.639948568
3029,9.620288988
3030,9.60234496
3031,9.558389195
3032,9.616850488
3033,9.653910173
3034,9.572048976
3035,9.552123449
3036,9.58314883
3037,9.619478648
3038,9.587889978
3039,9.627919329
3040,9.57602632
3041,9.624593915
3042,9.665979776
3043,9.562604695
3044,9.615800218
3045,9.593448734
3046,9.572239532
3047,9.551532492
3048,9.605391028
3049,9.539328658
3050,9.608969427
3051,9.608169635
3052,9.602693603
3053,9.629858058
3054,9.580882597
3055,9.619079063
3056,9.623162996
3057,9.680019142
3058,9.627631479
3059,9.581821295
3060,9.639324009
3061,9.589639106
3062,9.581442283
3063,9.638899815
3064,9.600674084
3065,9.603224913
3066,9.594471471
3067,9.58472782
3068,9.59539239
3069,9.584439066
3070,9.610184448
3071,9.583835926
3072,9.631603306
3073,9.612851416
3074,9.587543908
3075,9.576726457
3076,9.591523819
3077,9.640632659
3078,9.552979688
3079,9.634644966
3080,9.601053285
3081,9.618502985
3082,9.608799425
3083,9.618389302
3084,9.647762067
3085,9.587875295
3086,9.575627374
3087,9.631034229
3088,9.559988028
3089,9.631035112
3090,9.629310556
3091,9.572718641
3092,9.547245556
3093,9.600693119
3094,9.588065483
3095,9.617467567
3096,9.604557977
3097,9.619446056
3098,9.569779547
3099,9.576712848
3100,9.601339273
3101,9.571993614
3102,9.636509346
3103,9.587629193
3104,9.634714862
3105,9.616984558
3106,9.619063038
3107,9.609839485
3108,9.593656786
3109,9.592123825
3110,9.642182717
3111,9.615607267
3112,9.626553025
3113,9.537694323
3114,9.614023345
3115,9.594876596
3116,9.641913889
3117,9.576835075
3118,9.605198874
3119,9.605737146
3120,9.605929525
3121,9.635553247
3122,9.591157812
3123,9.590142052
3124,9.601425018
3125,9.61470283
3126,9.609500461
3127,9.602826264
3128,9.541604384
3129,9.534050427
3130,9.620235107
3131,9.612833367
3132,9.591116721
3133,9.566594633
3134,9.578407614
3135,9.554785203
3136,9.608203198
3137,9.609253928
3138,9.648161912
3139,9.599625207
3140,9.61273346
3141,9.651605895
3142,9.546473218
3143,9.570141468
3144,9.563402972
3145,9.620236199
3146,9.534984041
3147,9.540736764
3148,9.605523799
3149,9.576769994
3150,9.605949558
3151,9.599081908
3152,9.511583665
3153,9.586603349
3154,9.60358425
3155,9.615527922
3156,9.668021154
3157,9.638777868
3158,9.56648033
3159,9.542375061
3160,9.596673264
3161,9.611576577
3162,9.636637743
3163,9.586143314
3164,9.619042985
3165,9.623252025
3166,9.626731171
3167,9.602276316
3168,9.593077358
3169,9.577123039
3170,9.571686702
3171,9.566720882
3172,9.616844573
3173,9.604718758
3174,9.574348817
3175,9.572367505
3176,9.595376814
3177,9.584122199
3178,9.582541493
3179,9.589921497
3180,9.578880617
3181,9.626540442
3182,9.530128485
3183,9.631793669
3184,9.597622328
3185,9.583684647
3186,9.616824152
3187,9.616811496
3188,9.586600397
3189,9.583146036
3190,9.516859548
3191,9.604359866
3192,9.582416624
3193,9.61944035
3194,9.578247818
3195,9.578238647
3196,9.597897497
3197,9.581583149
3198,9.561888382
3199,9.63083174
3200,9.649972082
3201,9.609649137
3202,9.605727019
3203,9.566120642
3204,9.598825739
3205,9.580860349
3206,9.606973013
3207,9.639571157
3208,9.606312073
3209,9.600717748
3210,9.601223717
3211,9.558770942
3212,9.54797298
3213,9.61175002
3214,9.571869209
3215,9.62518835
3216,9.624425702
3217,9.586889375
3218,9.593344898
3219,9.589330787
3220,9.551980839
3221,9.556057161
3222,9.580435995
3223,9.598567389
3224,9.593938722
3225,9.586578609
3226,9.592242557
3227,9.602719993
3228,9.564504662
3229,9.611683862
3230,9.570575796
3231,9.593264041
3232,9.617476545
3233,9.55284488
3234,9.578144367
3235,9.536744468
3236,9.567677523
3237,9.585946289
3238,9.670108312
3239,9.589997724
3240,9.564147564
3241,9.52906847
3242,9.626317984
3243,9.543018574
3244,9.626597955
3245,9.53675839
3246,9.614733145
3247,9.638655847
3248,9.589045253
3249,9.635767865
3250,9.630407433
3251,9.571294157
3252,9.561864594
3253,9.574918305
3254,9.683210525
3255,9.632077305
3256,9.60068557
3257,9.591562547
3258,9.53875253
3259,9.589125839
3260,9.620716327
3261,9.61448258
3262,9.563591719
3263,9.612746178
3264,9.63264137
3265,9.578115253
3266,9.583548138
3267,9.592983718
3268,9.605707051
3269,9.575601979
3270,9.597523372
3271,9.586497418
3272,9.614935657
3273,9.579810211
3274,9.617888834
3275,9.614003151
3276,9.599016505
3277,9.607793312
3278,9.616505238
3279,9.587253935
3280,9.593911372
3281,9.59323101
3282,9.620858069
3283,9.621547546
3284,9.625513093
3285,9.587257059
3286,9.602840419
3287,9.564024719
3288,9.577325298
3289,9.603800702
3290,9.630194328
3291,9.564002276
3292,9.598748117
3293,9.607355481
3294,9.573417985
3295,9.577178419
3296,9.584520556
3297,9.548287726
3298,9.6045719
3299,9.553139755
3300,9.586359107
3301,9.620694187
3302,9.569567032
3303,9.598663193
3304,9.552473326
3305,9.559362136
3306,9.585389862
3307,9.540996683
3308,9.592556921
3309,9.600937671
3310,9.577103312
3311,9.558580698
3312,9.624503604
3313,9.579992741
3314,9.554824674
3315,9.602711022
3316,9.588210991
3317,9.6133851
3318,9.648538511
3319,9.597753267
3320,9.599687721
3321,9.613402347
3322,9.575498312
3323,9.637797229
3324,9.586693008
3325,9.599971525
3326,9.61217443
3327,9.626069271
3328,9.556517615
3329,9.629006017
3330,9.562517042
3331,9.627086746
3332,9.596769532
3333,9.539595273
3334,9.608509398
3335,9.587509185
3336,9.605163715
3337,9.587869222
3338,9.608133739
3339,9.611068083
3340,9.653936973
3341,9.586542918
3342,9.576070249
3343,9.59367869
3344,9.560171454
3345,9.574414144
3346,9.591349354
3347,9.581586887
3348,9.544220152
3349,9.538647913
3350,9.602017472
3351,9.667311623
3352,9.580474964
3353,9.606330748
3354,9.611018001
3355,9.602002277
3356,9.59172739
3357,9.599956335
3358,9.6536533
3359,9.586649927
3360,9.62299493
3361,9.637783099
3362,9.61380173
3363,9.569169994
3364,9.555087344
3365,9.600083859
3366,9.550380764
3367,9.647854282
3368,9.572412059
3369,9.598483804
3370,9.56485378
3371,9.579527637
3372,9.549688365
3373,9.617951338
3374,9.630488625
3375,9.55911385
3376,9.577089946
3377,9.526686627
3378,9.591779163
3379,9.614451994
3380,9.625223966
3381,9.624265581
3382,9.583093785
3383,9.583059835
3384,9.601423532
3385,9.594358767
3386,9.573522688
3387,9.624530642
3388,9.572931315
3389,9.651012288
3390,9.613688415
3391,9.634719318
3392,9.635093846
3393,9.543195089
3394,9.54986506
3395,9.607828936
3396,9.58862091
3397,9.584739998
3398,9.555607601
3399,9.587196626
3400,9.573309187
3401,9.636697729
3402,9.616712842
3403,9.617377145
3404,9.612442746
3405,9.603164101
3406,9.622166815
3407,9.599017941
3408,9.62942429
3409,9.56934502
3410,9.584071994
3411,9.596582154
3412,9.616412535
3413,9.62233938
3414,9.562641188
3415,9.588601227
3416,9.592555226
3417,9.559450305
3418,9.55656178
3419,9.589052091
3420,9.587760469
3421,9.578300713
3422,9.605451161
3423,9.541155054
3424,9.583644189
3425,9.597436875
3426,9.59006839
3427,9.566716811
3428,9.584520429
3429,9.618291763
3430,9.62883865
3431,9.594439729
3432,9.629356079
3433,9.633406756
3434,9.630933982
3435,9.639661077
3436,9.611744763
3437,9.580343842
3438,9.574597289
3439,9.596875842
3440,9.660562025
3441,9.656754724
3442,9.64544565
3443,9.546017724
3444,9.610113775
3445,9.605430441
3446,9.59504733
3447,9.610460513
3448,9.620129966
3449,9.604885326
3450,9.575644704
3451,9.572645923
3452,9.630338073
3453,9.625267367
3454,9.585569992
3455,9.637109783
3456,9.59595602
3457,9.642637335
3458,9.55231479
3459,9.635943268
3460,9.613945022
3461,9.563912425
3462,9.616426353
3463,9.634846018
3464,9.596890202
3465,9.632079399
3466,9.640305156
3467,9.611490988
3468,9.627920777
3469,9.596923204
3470,9.586187161
3471,9.701383057
3472,9.654084723
3473,9.568893808
3474,9.584206198
3475,9.593988161
3476,9.602385597
3477,9.624222652
3478,9.584022269
3479,9.620161175
3480,9.598289499
3481,9.573755498
3482,9.600479614
3483,9.600677224
3484,9.59132691
3485,9.545422721
3486,9.538417417
3487,9.584854671
3488,9.6025397
3489,9.576001728
3490,9.619800471
3491,9.616051605
3492,9.587426517
3493,9.641406519
3494,9.616517985
3495,9.628770019
3496,9.640464273
3497,9.5917661
3498,9.610323193
3499,9.641617255
3500,9.602959863
3501,9.617550873
3502,9.615862731
3503,9.568082194
3504,9.587891693
3505,9.595845009
3506,9.608649067
3507,9.634276817
3508,9.601765909
3509,9.600997054
3510,9.557022927
3511,9.610608471
3512,9.623296713
3513,9.572594509
3514,9.5983425
3515,9.586640411
3516,9.620235077
3517,9.610826874
3518,9.545000312
3519,9.566499513
3520,9.62617621
3521,9.561260901
3522,9.60488316
3523,9.547888933
3524,9.567813817
3525,9.602490397
3526,9.583571807
3527,9.618499457
3528,9.56468121
3529,9.613802536
3530,9.64189312
3531,9.581443781
3532,9.549150661
3533,9.586284275
3534,9.603373015
3535,9.559258651
3536,9.610634101
3537,9.631974115
3538,9.606503784
3539,9.590211428
3540,9.59703221
3541,9.585830329
3542,9.574875646
3543,9.629958372
3544,9.593536855
3545,9.607129944
3546,9.62213781
3547,9.597503235
3548,9.546168747
3549,9.588435638
3550,9.595214172
3551,9.579334856
3552,9.600584194
3553,9.603360334
3554,9.594231605
3555,9.58318356
3556,9.620496247
3557,9.627493016
3558,9.590245618
3559,9.587783845
3560,9.563868597
3561,9.607357165
3562,9.580083201
3563,9.565163122
3564,9.65066426
3565,9.659363463
3566,9.598202826
3567,9.623253615
3568,9.646337299
3569,9.538040526
3570,9.60281551
3571,9.554536167
3572,9.641704441
3573,9.639399761
3574,9.605460387
3575,9.589931569
3576,9.618406572
3577,9.674110463
3578,9.620395247
3579,9.564987023
3580,9.634894547
3581,9.659577461
3582,9.561055601
3583,9.620369176
3584,9.562025972
3585,9.564025325
3586,9.609436327
3587,9.611290915
3588,9.613474683
3589,9.641993612
3590,9.635959778
3591,9.589654446
3592,9.599753805
3593,9.595981115
3594,9.615383856
3595,9.585581914
3596,9.620673911
3597,9.673625546
3598,9.615562236
3599,9.530316462
3600,9.582503088
3601,9.576183693
3602,9.601145723
3603,9.563538237
3604,9.576409375
3605,9.588475157
3606,9.647050138
3607,9.58817877
3608,9.604309875
3609,9.575302665
3610,9.631421865
3611,9.531587644
3612,9.54683367
3613,9.633054044
3614,9.635146035
3615,9.663477805
3616,9.538088931
3617,9.624791702
3618,9.543066971
3619,9.591025363
3620,9.590916828
3621,9.602917008
3622,9.711601227
3623,9.576462543
3624,9.578468664
3625,9.554386796
3626,9.609601391
3627,9.63637076
3628,9.6398091
3629,9.604830103
3630,9.62242634
3631,9.583811335
3632,9.631293565
3633,9.558190317
3634,9.564885228
3635,9.586757796
3636,9.620452601
3637,9.598677392
3638,9.66193219
3639,9.617945701
3640,9.636239236
3641,9.576051596
3642,9.63953104
3643,9.620891993
3644,9.591029762
3645,9.553385248
3646,9.606868852
3647,9.586719755
3648,9.541315381
3649,9.575800511
3650,9.584311498
3651,9.629709446
3652,9.560596361
3653,9.600597208
3654,9.589416541
3655,9.569653024
3656,9.637507889
3657,9.657841164
3658,9.571952837
3659,9.614434526
3660,9.630318668
3661,9.58624979
3662,9.551061036
3663,9.633349489
3664,9.603434064
3665,9.585358642
3666,9.566941532
3667,9.592132076
3668,9.5711375
3669,9.582782325
3670,9.633316331
3671,9.546737522
3672,9.566613122
3673,9.606033714
3674,9.655341172
3675,9.604039815
3676,9.626742128
3677,9.549762734
3678,9.606691718
3679,9.603527564
3680,9.622108718
3681,9.60895888
3682,9.627060771
3683,9.636612269
3684,9.56616134
3685,9.629109158
3686,9.624873835
3687,9.559591713
3688,9.586809579
3689,9.595517125
3690,9.581322247
3691,9.534175781
3692,9.627471124
3693,9.573890248
3694,9.639836278
3695,9.580367091
3696,9.607179311
3697,9.545250867
3698,9.614610075
3699,9.631239013
3700,9.552291988
3701,9.675109659
3702,9.6494432
3703,9.647152202
3704,9.594834688
3705,9.571562429
3706,9.612545985
3707,9.609077717
3708,9.635607444
3709,9.678239554
3710,9.607314447
3711,9.601496058
3712,9.603934504
3713,9.594946076
3714,9.65892623
3715,9.645500099
3716,9.609169088
3717,9.616924633
3718,9.62822327
3719,9.614739601
3720,9.667179967
3721,9.637905437
3722,9.64271481
3723,9.630394399
3724,9.61911158
3725,9.624225972
3726,9.616638015
3727,9.62710199
3728,9.607606765
3729,9.568331745
3730,9.586935814
3731,9.597022171
3732,9.590084107
3733,9.617430439
3734,9.558828297
3735,9.616967812
3736,9.58975625
3737,9.626428507
3738,9.537198086
3739,9.602356348
3740,9.595812397
3741,9.557549189
3742,9.655527715
3743,9.614064561
3744,9.62905416
3745,9.61829212
3746,9.615566789
3747,9.616557408
3748,9.585283992
3749,9.616456396
3750,9.642902739
3751,9.639484089
3752,9.61386022
3753,9.580080427
3754,9.617050725
3755,9.607625852
3756,9.628273696
3757,9.605860314
3758,9.559756458
3759,9.534104646
3760,9.601050812
3761,9.649619791
3762,9.60726798
3763,9.593481755
3764,9.586051028
3765,9.603547302
3766,9.5796067
3767,9.617188172
3768,9.602435792
3769,9.582923041
3770,9.590982702
3771,9.622110952
3772,9.623659642
3773,9.608521632
3774,9.59221721
3775,9.640383849
3776,9.594769963
3777,9.54000206
3778,9.604033467
3779,9.572911799
3780,9.565985371
3781,9.608332483
3782,9.546702389
3783,9.596345279
3784,9.642000028
3785,9.589289229
3786,9.620480785
3787,9.569770852
3788,9.606290248
3789,9.577520426
3790,9.606723781
3791,9.599263092
3792,9.613406589
3793,9.629777545
3794,9.614979142
3795,9.564230184
3796,9.629493582
3797,9.585031933
3798,9.582713817
3799,9.615705911
3800,9.608379077
3801,9.577302956
3802,9.566417472
3803,9.565254044
3804,9.594378488
3805,9.627274287
3806,9.58459047
3807,9.633849845
3808,9.603988935
3809,9.619905544
3810,9.585920756
3811,9.580063223
3812,9.605512121
3813,9.565839138
3814,9.628028462
3815,9.574975717
3816,9.617381063
3817,9.604007167
3818,9.572209828
3819,9.559486591
3820,9.565030092
3821,9.649303387
3822,9.565139171
3823,9.587691151
3824,9.565151528
3825,9.632674702
3826,9.584647097
3827,9.6606406
3828,9.588603108
3829,9.54151448
3830,9.601976433
3831,9.600385812
3832,9.629244364
3833,9.591294404
3834,9.597284459
3835,9.623460072
3836,9.617898365
3837,9.580543675
3838,9.614181652
3839,9.571259743
3840,9.641591883
3841,9.639461338
3842,9.561896511
3843,9.570653842
3844,9.573804691
3845,9.552300506
3846,9.592066279
3847,9.583146244
3848,9.614006436
3849,9.62287991
3850,9.634305149
3851,9.627461833
3852,9.626898875
3853,9.601341536
3854,9.643124286
3855,9.586840831
3856,9.607353948
3857,9.633108244
3858,9.627358909
3859,9.614172246
3860,9.596286307
3861,9.655165663
3862,9.605811479
3863,9.61293224
3864,9.609808848
3865,9.613654083
3866,9.589984212
3867,9.592980076
3868,9.623692682
3869,9.627362089
3870,9.581825396
3871,9.665164228
3872,9.659753569
3873,9.595021966
3874,9.551296989
3875,9.622379197
3876,9.588812539
3877,9.593498083
3878,9.589140463
3879,9.573375848
3880,9.646212037
3881,9.613136554
3882,9.556198525
3883,9.58786643
3884,9.562919069
3885,9.624678026
3886,9.602410659
3887,9.537441267
3888,9.613364424
3889,9.547131333
3890,9.623390859
3891,9.5844809
3892,9.58049615
3893,9.63169374
3894,9.546919373
3895,9.576653591
3896,9.590718452
3897,9.666604081
3898,9.553019071
3899,9.57951746
3900,9.62708808
3901,9.613764103
3902,9.604821854
3903,9.582380364
3904,9.590963742
3905,9.633106298
3906,9.599519227
3907,9.575207412
3908,9.616388655
3909,9.57874005
3910,9.607332456
3911,9.57183039
3912,9.582366114
3913,9.642024433
3914,9.604275172
3915,9.588566998
3916,9.596405972
3917,9.614314805
3918,9.606954277
3919,9.592333852
3920,9.588257869
3921,9.585267977
3922,9.585672241
3923,9.57558126
3924,9.602245639
3925,9.555743276
3926,9.586604402
3927,9.608949754
3928,9.596934312
3929,9.609433706
3930,9.597021778
3931,9.595278171
3932,9.616485716
3933,9.578685603
3934,9.624775552
3935,9.566427147
3936,9.601795146
3937,9.585076518
3938,9.607774713
3939,9.596112674
3940,9.575555044
3941,9.611418332
3942,9.587782674
3943,9.670003874
3944,9.630888443
3945,9.59047272
3946,9.567296228
3947,9.58855856
3948,9.617505877
3949,9.602498028
3950,9.602931691
3951,9.530194452
3952,9.606876542
3953,9.611792216
3954,9.573983385
3955,9.560241137
3956,9.673198308
3957,9.580047324
3958,9.603417707
3959,9.583912267
3960,9.583688434
3961,9.555296293
3962,9.597969736
3963,9.583247409
3964,9.611451606
3965,9.599688478
3966,9.574478712
3967,9.580261034
3968,9.556002585
3969,9.634589936
3970,9.577155034
3971,9.576701728
3972,9.565476172
3973,9.631308039
3974,9.545794032
3975,9.608761984
3976,9.590655715
3977,9.587976473
3978,9.5965814
3979,9.556580099
3980,9.634228589
3981,9.614954283
3982,9.590411948
3983,9.618614164
3984,9.570686419
3985,9.604176385
3986,9.586304406
3987,9.625497258
3988,9.627033529
3989,9.584671371
3990,9.621546867
3991,9.603003136
3992,9.640710126
3993,9.579371563
3994,9.552838242
3995,9.580610406
3996,9.577062323
3997,9.579164848
3998,9.597857495
3999,9.522498654
4000,9.553366473
