Raman shift,Intensity
765.2208,202.66571
803.99894,190.16705
803.99894,189.50922
803.99894,188.8514
805.61469,190.82487
805.61469,188.19357
805.61469,185.56228
807.23045,187.53575
807.23045,186.2201
807.23045,186.87792
807.23045,185.56228
807.23045,190.82487
808.84621,183.5888
808.84621,184.24663
808.84621,184.90445
808.84621,182.93098
808.84621,182.27315
808.84621,181.61533
808.84621,180.9575
808.84621,185.56228
808.84621,190.82487
810.46196,190.82487
810.46196,180.29968
812.07772,180.29968
812.07772,190.82487
813.69347,190.82487
813.69347,180.29968
815.30923,179.64186
815.30923,180.29968
815.30923,190.82487
816.92498,178.32621
816.92498,178.98403
816.92498,194.77182
816.92498,191.48269
816.92498,192.14052
816.92498,192.79834
816.92498,193.45617
816.92498,194.11399
818.54074,194.77182
820.1565,194.77182
821.77225,194.11399
823.38801,194.77182
825.00376,195.42964
826.61952,195.42964
828.23528,194.77182
829.85103,194.77182
831.46679,194.11399
833.08254,194.11399
834.6983,193.45617
836.31405,192.79834
836.31405,192.14052
837.92981,191.48269
837.92981,190.82487
839.54557,190.16705
841.16132,190.82487
842.77708,191.48269
844.39283,191.48269
846.00859,190.82487
847.62434,190.82487
849.2401,190.82487
849.2401,191.48269
849.2401,192.14052
850.85586,192.79834
850.85586,193.45617
852.47161,193.45617
854.08737,193.45617
855.70312,193.45617
855.70312,194.11399
855.70312,194.77182
855.70312,195.42964
857.31888,196.08747
858.93464,196.08747
860.55039,195.42964
862.16615,194.77182
863.7819,194.11399
865.39766,193.45617
867.01341,192.79834
868.62917,193.45617
870.24493,192.79834
871.86068,192.79834
873.47644,192.14052
875.09219,192.14052
876.70795,192.14052
878.3237,191.48269
879.93946,191.48269
881.55522,191.48269
883.17097,192.14052
884.78673,192.79834
886.40248,193.45617
888.01824,194.11399
889.63399,194.11399
891.24975,190.82487
891.24975,194.11399
891.24975,193.45617
891.24975,192.79834
891.24975,192.14052
891.24975,191.48269
892.86551,190.16705
892.86551,190.82487
894.48126,190.16705
896.09702,190.16705
897.71277,190.16705
899.32853,190.16705
900.94429,190.16705
902.56004,190.16705
904.1758,189.50922
904.1758,188.8514
905.79155,188.8514
905.79155,188.19357
907.40731,186.87792
907.40731,188.19357
907.40731,187.53575
909.02306,186.87792
909.02306,186.2201
910.63882,186.2201
910.63882,185.56228
912.25458,183.5888
912.25458,184.90445
912.25458,184.24663
912.25458,185.56228
913.87033,182.93098
915.48609,182.93098
917.10184,183.5888
918.7176,184.24663
920.33335,184.24663
921.94911,184.90445
923.56487,184.24663
925.18062,184.24663
926.79638,184.24663
928.41213,183.5888
930.02789,182.93098
931.64365,182.27315
933.2594,182.27315
934.87516,182.93098
936.49091,182.27315
938.10667,182.93098
939.72242,183.5888
941.33818,183.5888
942.95394,183.5888
944.56969,184.24663
946.18545,184.90445
947.8012,185.56228
949.41696,186.2201
951.03271,186.87792
952.64847,186.87792
954.26423,186.87792
954.26423,187.53575
955.87998,186.87792
955.87998,187.53575
957.49574,187.53575
957.49574,186.2201
959.11149,185.56228
959.11149,186.87792
960.72725,186.2201
960.72725,184.90445
962.343,184.24663
962.343,185.56228
963.95876,184.24663
963.95876,184.90445
965.57452,184.90445
965.57452,184.24663
967.19027,184.90445
967.19027,184.24663
968.80603,184.90445
968.80603,185.56228
970.42178,185.56228
970.42178,186.2201
972.03754,186.87792
972.03754,185.56228
973.6533,186.2201
973.6533,185.56228
975.26905,185.56228
975.26905,186.2201
976.88481,185.56228
976.88481,184.90445
976.88481,186.2201
978.50056,185.56228
978.50056,184.90445
980.11632,184.24663
980.11632,184.90445
980.11632,185.56228
981.73207,184.90445
981.73207,183.5888
981.73207,184.24663
983.34783,182.93098
983.34783,182.27315
983.34783,184.24663
984.96359,184.24663
984.96359,183.5888
984.96359,180.9575
984.96359,182.27315
984.96359,181.61533
986.57934,182.93098
986.57934,177.66838
986.57934,182.27315
986.57934,180.29968
986.57934,178.32621
986.57934,178.98403
986.57934,179.64186
986.57934,181.61533
986.57934,183.5888
986.57934,180.9575
988.1951,180.29968
988.1951,177.01056
989.81085,176.35273
989.81085,180.29968
991.42661,180.29968
991.42661,176.35273
993.04236,180.29968
993.04236,176.35273
994.65812,175.69491
994.65812,180.29968
994.65812,176.35273
996.27388,175.69491
996.27388,180.29968
997.88963,180.9575
997.88963,175.03708
997.88963,175.69491
999.50539,181.61533
999.50539,175.03708
1001.12114,175.03708
1001.12114,182.27315
1001.12114,173.72144
1001.12114,173.06361
1001.12114,172.40579
1001.12114,171.74796
1001.12114,174.37926
1002.7369,171.74796
1002.7369,182.93098
1004.35266,182.93098
1004.35266,172.40579
1005.96841,173.06361
1005.96841,183.5888
1007.58417,173.72144
1007.58417,183.5888
1009.19992,183.5888
1009.19992,173.72144
1010.81568,173.06361
1010.81568,182.93098
1012.43143,173.06361
1012.43143,183.5888
1014.04719,183.5888
1014.04719,173.06361
1015.66295,173.06361
1015.66295,183.5888
1017.2787,183.5888
1017.2787,172.40579
1018.89446,183.5888
1018.89446,171.74796
1020.51021,171.09014
1020.51021,184.24663
1022.12597,171.09014
1022.12597,184.24663
1023.74172,183.5888
1023.74172,170.43231
1025.35748,170.43231
1025.35748,184.90445
1025.35748,184.24663
1025.35748,183.5888
1026.97324,184.90445
1026.97324,171.09014
1028.58899,185.56228
1028.58899,171.09014
1028.58899,184.90445
1030.20475,185.56228
1030.20475,173.72144
1030.20475,172.40579
1030.20475,171.74796
1030.20475,174.37926
1030.20475,173.06361
1031.8205,177.01056
1031.8205,185.56228
1031.8205,186.87792
1031.8205,186.2201
1031.8205,174.37926
1033.43626,187.53575
1033.43626,177.66838
1033.43626,176.35273
1033.43626,174.37926
1035.05201,174.37926
1035.05201,175.03708
1035.05201,187.53575
1035.05201,175.69491
1035.05201,178.32621
1035.05201,178.98403
1036.66777,187.53575
1036.66777,188.19357
1036.66777,188.8514
1036.66777,180.29968
1036.66777,179.64186
1036.66777,180.9575
1038.28353,181.61533
1038.28353,189.50922
1038.28353,182.27315
1039.89928,182.93098
1039.89928,189.50922
1041.51504,183.5888
1041.51504,188.8514
1043.13079,188.19357
1043.13079,183.5888
1044.74655,183.5888
1044.74655,188.19357
1046.36231,183.5888
1046.36231,188.19357
1046.36231,188.8514
1046.36231,187.53575
1047.97806,187.53575
1047.97806,184.24663
1049.59382,184.24663
1049.59382,187.53575
1051.20957,187.53575
1051.20957,183.5888
1051.20957,182.93098
1051.20957,180.29968
1051.20957,180.9575
1051.20957,181.61533
1051.20957,182.27315
1052.82533,180.29968
1052.82533,179.64186
1052.82533,178.98403
1052.82533,178.32621
1052.82533,184.24663
1052.82533,186.2201
1052.82533,187.53575
1052.82533,186.87792
1052.82533,184.90445
1052.82533,185.56228
1054.44108,184.24663
1054.44108,177.66838
1056.05684,177.66838
1056.05684,183.5888
1056.05684,184.24663
1056.05684,182.93098
1056.05684,182.27315
1057.6726,182.27315
1057.6726,177.66838
1059.28835,177.01056
1059.28835,182.27315
1059.28835,177.66838
1060.90411,177.01056
1060.90411,182.27315
1060.90411,176.35273
1060.90411,175.03708
1060.90411,175.69491
1062.51986,181.61533
1062.51986,180.9575
1062.51986,175.03708
1062.51986,174.37926
1064.13562,174.37926
1064.13562,180.29968
1064.13562,179.64186
1064.13562,180.9575
1065.75137,178.98403
1065.75137,178.32621
1065.75137,173.72144
1065.75137,179.64186
1067.36713,173.72144
1067.36713,177.66838
1067.36713,178.32621
1067.36713,177.01056
1067.36713,176.35273
1067.36713,175.69491
1068.98289,175.03708
1068.98289,173.72144
1070.59864,174.37926
1070.59864,175.69491
1072.2144,175.03708
1072.2144,176.35273
1073.83015,177.01056
1073.83015,175.69491
1075.44591,177.66838
1075.44591,175.69491
1077.06167,178.32621
1077.06167,175.69491
1077.06167,176.35273
1077.06167,177.01056
1078.67742,176.35273
1078.67742,177.66838
1080.29318,175.69491
1080.29318,177.01056
1081.90893,176.35273
1081.90893,175.69491
1083.52469,176.35273
1083.52469,175.69491
1085.14044,175.69491
1085.14044,177.01056
1086.7562,175.69491
1086.7562,177.01056
1088.37196,176.35273
1088.37196,177.01056
1088.37196,175.69491
1089.98771,175.69491
1089.98771,177.01056
1091.60347,177.01056
1091.60347,175.69491
1093.21922,175.69491
1093.21922,177.01056
1094.83498,177.01056
1094.83498,175.69491
1096.45073,177.01056
1096.45073,175.69491
1098.06649,175.03708
1098.06649,175.69491
1098.06649,177.01056
1098.06649,177.66838
1098.06649,176.35273
1099.68225,177.66838
1099.68225,178.32621
1101.298,178.32621
1101.298,178.98403
1102.91376,178.98403
1102.91376,179.64186
1104.52951,178.98403
1104.52951,179.64186
1106.14527,178.98403
1106.14527,179.64186
1107.76102,179.64186
1107.76102,180.29968
1109.37678,180.9575
1109.37678,180.29968
1110.99254,181.61533
1110.99254,180.9575
1112.60829,181.61533
1112.60829,180.9575
1114.22405,178.32621
1114.22405,178.98403
1114.22405,179.64186
1114.22405,180.29968
1114.22405,180.9575
1114.22405,181.61533
1115.8398,177.66838
1115.8398,177.01056
1115.8398,176.35273
1115.8398,175.69491
1115.8398,181.61533
1117.45556,180.9575
1117.45556,175.03708
1117.45556,175.69491
1119.07132,174.37926
1119.07132,175.03708
1119.07132,180.9575
1119.07132,180.29968
1120.68707,180.29968
1120.68707,174.37926
1120.68707,179.64186
1122.30283,178.98403
1122.30283,178.32621
1122.30283,179.64186
1122.30283,173.06361
1122.30283,174.37926
1122.30283,173.72144
1123.91858,178.32621
1123.91858,173.06361
1123.91858,172.40579
1125.53434,172.40579
1125.53434,176.35273
1125.53434,177.01056
1125.53434,177.66838
1127.15009,175.03708
1127.15009,171.74796
1127.15009,176.35273
1127.15009,175.69491
1127.15009,172.40579
1128.76585,171.09014
1128.76585,175.03708
1128.76585,174.37926
1128.76585,173.72144
1128.76585,171.74796
1130.38161,173.06361
1130.38161,170.43231
1131.99736,172.40579
1131.99736,170.43231
1133.61312,172.40579
1133.61312,170.43231
1135.22887,172.40579
1135.22887,170.43231
1136.84463,171.09014
1136.84463,169.11666
1136.84463,169.77449
1136.84463,171.74796
1138.46038,178.32621
1138.46038,176.35273
1138.46038,177.01056
1138.46038,177.66838
1138.46038,175.69491
1138.46038,175.03708
1138.46038,174.37926
1138.46038,173.72144
1138.46038,168.45884
1138.46038,173.06361
1138.46038,170.43231
1138.46038,171.09014
1138.46038,171.74796
1138.46038,172.40579
1140.07614,178.98403
1140.07614,179.64186
1141.6919,179.64186
1141.6919,180.29968
1141.6919,180.9575
1143.30765,180.9575
1143.30765,180.29968
1144.92341,180.9575
1144.92341,180.29968
1146.53916,181.61533
1146.53916,180.9575
1146.53916,180.29968
1146.53916,182.27315
1146.53916,182.93098
1148.15492,183.5888
1148.15492,182.93098
1148.15492,180.29968
1148.15492,180.9575
1148.15492,181.61533
1148.15492,182.27315
1149.77068,184.24663
1149.77068,183.5888
1151.38643,183.5888
1153.00219,184.24663
1154.61794,183.5888
1156.2337,183.5888
1157.84945,182.93098
1159.46521,182.27315
1161.08097,182.27315
1162.69672,182.27315
1164.31248,182.27315
1165.92823,182.27315
1167.54399,182.93098
1169.15974,182.93098
1169.15974,182.27315
1170.7755,182.27315
1172.39126,182.27315
1174.00701,182.27315
1174.00701,181.61533
1174.00701,180.9575
1175.62277,180.9575
1177.23852,180.9575
1178.85428,180.9575
1178.85428,180.29968
1178.85428,179.64186
1178.85428,178.98403
1178.85428,178.32621
1178.85428,177.66838
1178.85428,177.01056
1178.85428,176.35273
1178.85428,175.69491
1180.47003,175.03708
1180.47003,179.64186
1180.47003,180.29968
1182.08579,174.37926
1182.08579,179.64186
1182.08579,178.98403
1183.70155,178.98403
1183.70155,174.37926
1185.3173,173.72144
1185.3173,178.32621
1186.93306,173.06361
1186.93306,173.72144
1186.93306,177.01056
1186.93306,176.35273
1186.93306,177.66838
1188.54881,172.40579
1188.54881,177.01056
1188.54881,173.06361
1190.16457,176.35273
1190.16457,172.40579
1191.78033,175.69491
1191.78033,171.74796
1193.39608,175.69491
1193.39608,171.74796
1193.39608,171.09014
1195.01184,171.09014
1195.01184,175.69491
1196.62759,171.09014
1196.62759,170.43231
1196.62759,176.35273
1198.24335,177.66838
1198.24335,171.09014
1198.24335,179.64186
1198.24335,178.98403
1198.24335,178.32621
1198.24335,180.29968
1198.24335,177.01056
1198.24335,180.9575
1199.8591,181.61533
1199.8591,180.9575
1199.8591,171.74796
1201.47486,182.93098
1201.47486,172.40579
1201.47486,181.61533
1201.47486,182.27315
1203.09062,173.06361
1203.09062,182.93098
1203.09062,183.5888
1203.09062,184.24663
1204.70637,184.24663
1204.70637,184.90445
1204.70637,185.56228
1204.70637,173.72144
1206.32213,174.37926
1206.32213,186.2201
1207.93788,186.2201
1207.93788,175.03708
1209.55364,186.2201
1209.55364,175.69491
1211.16939,187.53575
1211.16939,186.87792
1211.16939,188.8514
1211.16939,186.2201
1211.16939,176.35273
1211.16939,188.19357
1211.16939,189.50922
1212.78515,190.16705
1212.78515,177.01056
1214.40091,190.16705
1214.40091,177.66838
1216.01666,177.66838
1216.01666,190.16705
1217.63242,190.16705
1217.63242,190.82487
1217.63242,191.48269
1217.63242,177.66838
1219.24817,192.79834
1219.24817,192.14052
1219.24817,180.29968
1219.24817,179.64186
1219.24817,178.98403
1219.24817,178.32621
1219.24817,177.66838
1220.86393,180.9575
1222.47969,180.9575
1224.09544,180.9575
1225.7112,181.61533
1227.32695,181.61533
1228.94271,181.61533
1230.55846,182.27315
1232.17422,181.61533
1233.78998,180.9575
1233.78998,179.64186
1233.78998,178.98403
1233.78998,180.29968
1235.40573,178.98403
1235.40573,178.32621
1237.02149,177.66838
1237.02149,178.32621
1238.63724,177.66838
1238.63724,177.01056
1240.253,176.35273
1240.253,177.01056
1241.86875,176.35273
1243.48451,179.64186
1243.48451,176.35273
1243.48451,178.98403
1245.10027,177.01056
1245.10027,178.32621
1245.10027,177.66838
1245.10027,175.03708
1245.10027,174.37926
1245.10027,176.35273
1245.10027,179.64186
1245.10027,175.69491
1246.71602,175.69491
1246.71602,176.35273
1246.71602,177.01056
1246.71602,175.03708
1246.71602,174.37926
1246.71602,173.72144
1246.71602,179.64186
1248.33178,179.64186
1248.33178,174.37926
1248.33178,173.06361
1249.94753,175.03708
1249.94753,180.29968
1251.56329,182.93098
1251.56329,183.5888
1251.56329,184.24663
1251.56329,184.90445
1251.56329,185.56228
1251.56329,181.61533
1251.56329,182.27315
1251.56329,180.9575
1253.17904,187.53575
1253.17904,186.2201
1253.17904,186.87792
1253.17904,185.56228
1254.7948,188.8514
1254.7948,188.19357
1256.41056,188.8514
1258.02631,188.8514
1259.64207,188.8514
1261.25782,188.8514
1262.87358,189.50922
1262.87358,190.82487
1262.87358,191.48269
1262.87358,190.16705
1264.48934,193.45617
1264.48934,194.11399
1264.48934,192.14052
1264.48934,191.48269
1264.48934,194.77182
1264.48934,195.42964
1264.48934,196.08747
1264.48934,196.74529
1264.48934,197.40311
1264.48934,192.79834
1266.10509,198.06094
1267.72085,198.06094
1269.3366,198.06094
1270.95236,197.40311
1272.56811,196.74529
1274.18387,197.40311
1275.79963,198.06094
1277.41538,198.06094
1279.03114,192.14052
1279.03114,197.40311
1279.03114,196.08747
1279.03114,196.74529
1279.03114,192.79834
1279.03114,194.77182
1279.03114,194.11399
1279.03114,193.45617
1279.03114,195.42964
1280.64689,192.14052
1282.26265,191.48269
1282.26265,189.50922
1282.26265,190.16705
1282.26265,192.14052
1282.26265,190.82487
1283.8784,188.8514
1285.49416,188.8514
1287.10992,188.8514
1287.10992,188.19357
1288.72567,188.8514
1290.34143,189.50922
1291.95718,190.16705
1293.57294,189.50922
1295.1887,190.16705
1295.1887,191.48269
1295.1887,190.82487
1295.1887,192.14052
1295.1887,189.50922
1295.1887,188.8514
1296.80445,194.11399
1296.80445,194.77182
1296.80445,192.14052
1296.80445,192.79834
1296.80445,195.42964
1296.80445,193.45617
1298.42021,196.74529
1298.42021,196.08747
1298.42021,197.40311
1300.03596,198.71876
1300.03596,198.06094
1301.65172,200.03441
1301.65172,199.37659
1303.26747,202.00789
1303.26747,200.69224
1303.26747,201.35006
1303.26747,202.66571
1303.26747,203.32353
1304.88323,203.98136
1306.49899,203.98136
1308.11474,206.61266
1308.11474,203.98136
1308.11474,204.63918
1308.11474,205.29701
1308.11474,205.95483
1309.7305,207.92831
1309.7305,206.61266
1309.7305,207.27048
1311.34625,208.58613
1311.34625,207.92831
1312.96201,209.24395
1314.57776,209.24395
1316.19352,210.5596
1316.19352,211.21743
1316.19352,209.24395
1316.19352,209.90178
1317.80928,211.21743
1317.80928,210.5596
1317.80928,209.90178
1317.80928,209.24395
1319.42503,209.24395
1321.04079,209.24395
1322.65654,209.24395
1324.2723,208.58613
1324.2723,207.92831
1324.2723,207.27048
1324.2723,206.61266
1325.88805,205.95483
1327.50381,205.95483
1329.11957,205.95483
1330.73532,205.95483
1330.73532,205.29701
1332.35108,205.29701
1332.35108,204.63918
1332.35108,203.98136
1332.35108,203.32353
1332.35108,202.66571
1332.35108,202.00789
1333.96683,202.00789
1335.58259,202.00789
1337.19835,202.00789
1338.8141,202.66571
1340.42986,203.32353
1342.04561,202.66571
1343.66137,203.32353
1345.27712,203.98136
1346.89288,204.63918
1348.50864,204.63918
1350.12439,203.98136
1351.74015,203.98136
1353.3559,203.98136
1353.3559,203.32353
1354.97166,203.32353
1354.97166,202.66571
1356.58741,202.66571
1358.20317,202.66571
1358.20317,202.00789
1359.81893,202.00789
1359.81893,201.35006
1361.43468,201.35006
1363.05044,200.69224
1364.66619,200.03441
1364.66619,199.37659
1364.66619,198.71876
1364.66619,198.06094
1364.66619,197.40311
1366.28195,196.74529
1367.89771,196.74529
1369.51346,196.74529
1371.12922,196.74529
1372.74497,196.74529
1374.36073,196.74529
1374.36073,197.40311
1375.97648,197.40311
1375.97648,198.06094
1377.59224,198.06094
1377.59224,198.71876
1377.59224,199.37659
1377.59224,200.03441
1377.59224,200.69224
1377.59224,201.35006
1377.59224,202.00789
1379.208,202.00789
1379.208,202.66571
1380.82375,202.66571
1380.82375,203.32353
1382.43951,203.32353
1382.43951,203.98136
1382.43951,204.63918
1384.05526,204.63918
1385.67102,204.63918
1385.67102,205.29701
1385.67102,205.95483
1387.28677,205.95483
1387.28677,206.61266
1388.90253,206.61266
1390.51829,206.61266
1392.13404,206.61266
1392.13404,207.27048
1393.7498,207.92831
1395.36555,207.92831
1396.98131,207.92831
1396.98131,208.58613
1398.59706,208.58613
1400.21282,208.58613
1400.21282,209.24395
1401.82858,209.24395
1401.82858,209.90178
1403.44433,209.90178
1403.44433,210.5596
1403.44433,211.21743
1403.44433,211.87525
1403.44433,212.53308
1403.44433,213.1909
1405.06009,212.53308
1406.67584,211.87525
1408.2916,211.21743
1409.90736,210.5596
1411.52311,211.21743
1413.13887,211.87525
1414.75462,212.53308
1416.37038,213.1909
1416.37038,212.53308
1417.98613,212.53308
1419.60189,212.53308
1421.21765,211.87525
1421.21765,211.21743
1421.21765,210.5596
1422.8334,210.5596
1424.44916,210.5596
1424.44916,209.90178
1426.06491,209.90178
1426.06491,209.24395
1426.06491,208.58613
1426.06491,207.92831
1426.06491,207.27048
1426.06491,206.61266
1427.68067,205.95483
1429.29642,205.95483
1430.91218,205.95483
1432.52794,206.61266
1434.14369,207.27048
1435.75945,207.92831
1437.3752,208.58613
1438.99096,207.92831
1440.60672,208.58613
1442.22247,208.58613
1443.83823,208.58613
1445.45398,208.58613
1447.06974,207.92831
1447.06974,207.27048
1447.06974,206.61266
1447.06974,205.95483
1447.06974,205.29701
1447.06974,204.63918
1448.68549,204.63918
1450.30125,204.63918
1450.30125,203.98136
1451.91701,203.98136
1453.53276,203.98136
1453.53276,203.32353
1455.14852,203.98136
1456.76427,204.63918
1458.38003,205.29701
1459.99578,204.63918
1461.61154,205.29701
1463.2273,205.29701
1464.84305,204.63918
1466.45881,203.98136
1466.45881,203.32353
1468.07456,202.66571
1469.69032,202.00789
1471.30607,201.35006
1472.92183,200.69224
1474.53759,200.03441
1474.53759,199.37659
1511.69997,199.37659
1511.69997,198.71876
1513.31573,200.03441
1514.93148,202.00789
1514.93148,200.69224
1514.93148,201.35006
1516.54724,202.66571
1518.16299,203.32353
1519.77875,211.87525
1519.77875,203.98136
1519.77875,204.63918
1519.77875,210.5596
1519.77875,205.95483
1519.77875,212.53308
1521.3945,213.84873
1521.3945,206.61266
1521.3945,213.1909
1521.3945,215.8222
1521.3945,209.90178
1521.3945,205.29701
1521.3945,211.21743
1521.3945,214.50655
1521.3945,215.16437
1523.01026,209.24395
1523.01026,207.27048
1523.01026,207.92831
1523.01026,208.58613
1523.01026,216.48002
1524.62602,221.08479
1524.62602,217.13785
1524.62602,220.42697
1526.24177,218.4535
1526.24177,219.11132
1526.24177,219.76915
1526.24177,217.79567
1526.24177,223.05827
1526.24177,221.74262
1526.24177,222.40044
1526.24177,223.71609
1527.85753,224.37392
1529.47328,226.34739
1529.47328,227.00521
1529.47328,227.66304
1529.47328,225.68957
1529.47328,225.03174
1531.08904,230.95216
1531.08904,230.29434
1531.08904,229.63651
1531.08904,228.32086
1531.08904,228.97869
1532.70479,232.26781
1532.70479,232.92563
1532.70479,231.60999
1534.32055,225.68957
1534.32055,227.00521
1534.32055,226.34739
1534.32055,233.58346
1534.32055,225.03174
1535.93631,246.08212
1535.93631,223.71609
1535.93631,241.47735
1535.93631,240.81953
1535.93631,224.37392
1535.93631,244.76647
1535.93631,245.4243
1535.93631,227.66304
1535.93631,246.73995
1535.93631,247.39777
1535.93631,248.0556
1535.93631,248.71342
1535.93631,234.24128
1537.55206,245.4243
1537.55206,223.05827
1537.55206,240.1617
1537.55206,239.50388
1537.55206,246.73995
1537.55206,217.13785
1537.55206,217.79567
1537.55206,218.4535
1537.55206,232.26781
1537.55206,234.89911
1537.55206,244.10865
1537.55206,243.45083
1537.55206,247.39777
1537.55206,248.0556
1537.55206,248.71342
1537.55206,246.08212
1537.55206,228.32086
1537.55206,228.97869
1537.55206,229.63651
1537.55206,242.13518
1537.55206,232.92563
1537.55206,241.47735
1537.55206,242.793
1537.55206,240.81953
1539.16782,238.18823
1539.16782,240.1617
1539.16782,221.08479
1539.16782,219.11132
1539.16782,242.13518
1539.16782,242.793
1539.16782,243.45083
1539.16782,244.10865
1539.16782,237.53041
1539.16782,235.55693
1539.16782,236.21476
1539.16782,236.87258
1539.16782,246.08212
1539.16782,246.73995
1539.16782,238.84605
1539.16782,221.74262
1539.16782,222.40044
1539.16782,230.29434
1539.16782,230.95216
1539.16782,231.60999
1539.16782,233.58346
1539.16782,244.76647
1539.16782,245.4243
1539.16782,247.39777
1539.16782,248.0556
1540.78357,236.21476
1540.78357,237.53041
1540.78357,238.18823
1540.78357,234.89911
1540.78357,234.24128
1540.78357,248.71342
1540.78357,235.55693
1540.78357,236.87258
1540.78357,220.42697
1540.78357,219.76915
1540.78357,238.84605
1540.78357,244.76647
1540.78357,244.10865
1540.78357,243.45083
1540.78357,242.793
1540.78357,242.13518
1540.78357,241.47735
1540.78357,240.81953
1540.78357,239.50388
1542.39933,240.1617
1544.01508,240.1617
1545.63084,240.1617
1547.2466,240.81953
1548.86235,241.47735
1550.47811,241.47735
1552.09386,241.47735
1553.70962,240.81953
1555.32538,241.47735
1556.94113,241.47735
1558.55689,240.81953
1560.17264,240.1617
1561.7884,239.50388
1563.40415,239.50388
1565.01991,239.50388
1566.63567,240.1617
1566.63567,240.81953
1566.63567,241.47735
1566.63567,242.13518
1566.63567,242.793
1566.63567,243.45083
1566.63567,239.50388
1568.25142,244.10865
1568.25142,243.45083
1569.86718,244.76647
1569.86718,245.4243
1569.86718,246.08212
1569.86718,244.10865
1571.48293,246.73995
1573.09869,247.39777
1573.09869,246.73995
1573.09869,248.0556
1574.71444,248.71342
1574.71444,248.0556
1576.3302,248.71342
1577.94596,248.71342
1579.56171,248.71342
1581.17747,248.71342
1582.79322,248.71342
1582.79322,249.37125
1582.79322,254.63384
1584.40898,250.68689
1584.40898,253.97602
1584.40898,255.29167
1584.40898,250.02907
1584.40898,251.34472
1586.02474,252.00254
1586.02474,252.66037
1586.02474,255.94949
1586.02474,253.31819
1587.64049,256.60731
1587.64049,257.92296
1587.64049,265.81686
1587.64049,257.26514
1587.64049,266.47468
1589.25625,266.47468
1589.25625,267.1325
1589.25625,265.15903
1589.25625,258.58079
1590.872,259.89644
1590.872,260.55426
1590.872,261.21208
1590.872,264.50121
1590.872,259.23861
1590.872,267.1325
1590.872,268.44815
1590.872,261.86991
1590.872,267.79033
1592.48776,263.18556
1592.48776,262.52773
1592.48776,269.10598
1592.48776,269.7638
1592.48776,270.42163
1592.48776,263.84338
1594.10351,271.07945
1594.10351,270.42163
1595.71927,270.42163
1595.71927,271.73728
1595.71927,272.3951
1595.71927,273.05292
1597.33503,273.05292
1597.33503,273.71075
1597.33503,274.36857
1598.95078,274.36857
1598.95078,275.0264
1600.56654,275.0264
1602.18229,275.0264
1603.79805,275.0264
1603.79805,275.68422
1605.4138,275.68422
1607.02956,275.68422
1607.02956,276.34205
1607.02956,276.99987
1607.02956,277.6577
1607.02956,278.31552
1607.02956,278.97334
1607.02956,279.63117
1607.02956,280.28899
1608.64532,280.94682
1610.26107,280.94682
1611.87683,280.94682
1613.49258,280.94682
1615.10834,280.28899
1616.72409,280.28899
1618.33985,280.28899
1619.95561,280.28899
1619.95561,279.63117
1619.95561,278.97334
1619.95561,278.31552
1619.95561,277.6577
1619.95561,276.99987
1619.95561,276.34205
1621.57136,276.34205
1623.18712,276.34205
1624.80287,276.34205
1626.41863,276.34205
1628.03439,276.34205
1629.65014,276.34205
1629.65014,275.68422
1631.2659,275.68422
1631.2659,275.0264
1632.88165,275.0264
1632.88165,274.36857
1632.88165,273.71075
1634.49741,273.71075
1634.49741,273.05292
1634.49741,272.3951
1634.49741,271.73728
1636.11316,271.73728
1636.11316,271.07945
1636.11316,265.15903
1637.72892,261.86991
1637.72892,263.84338
1637.72892,264.50121
1637.72892,270.42163
1637.72892,265.81686
1637.72892,262.52773
1637.72892,263.18556
1639.34468,261.21208
1639.34468,267.79033
1639.34468,268.44815
1639.34468,269.10598
1639.34468,269.7638
1639.34468,266.47468
1640.96043,267.79033
1640.96043,267.1325
1640.96043,260.55426
1642.57619,260.55426
1642.57619,258.58079
1642.57619,259.89644
1642.57619,259.23861
1642.57619,257.92296
1644.19194,260.55426
1644.19194,257.26514
1644.19194,256.60731
1644.19194,255.94949
1644.19194,255.29167
1645.8077,255.29167
1647.42345,255.29167
1649.03921,255.29167
1650.65497,255.29167
1652.27072,255.29167
1652.27072,254.63384
1652.27072,253.97602
1652.27072,251.34472
1653.88648,253.31819
1653.88648,253.97602
1653.88648,252.00254
1653.88648,252.66037
1653.88648,251.34472
1653.88648,246.73995
1655.50223,246.08212
1655.50223,245.4243
1655.50223,244.10865
1655.50223,244.76647
1655.50223,251.34472
1655.50223,247.39777
1657.11799,250.68689
1657.11799,251.34472
1657.11799,248.0556
1657.11799,243.45083
1657.11799,240.81953
1657.11799,249.37125
1657.11799,250.02907
1658.73375,248.71342
1658.73375,242.793
1658.73375,240.1617
1658.73375,241.47735
1658.73375,249.37125
1660.3495,242.13518
1660.3495,239.50388
1660.3495,238.84605
1660.3495,238.18823
1661.96526,237.53041
1661.96526,236.87258
1661.96526,236.21476
1661.96526,234.89911
1661.96526,244.76647
1661.96526,244.10865
1661.96526,243.45083
1661.96526,234.24128
1663.58101,245.4243
1663.58101,246.08212
1663.58101,246.73995
1663.58101,235.55693
1663.58101,241.47735
1663.58101,242.793
1663.58101,232.26781
1663.58101,232.92563
1663.58101,242.13518
1663.58101,233.58346
1665.19677,232.26781
1665.19677,240.81953
1665.19677,231.60999
1666.81252,230.95216
1666.81252,232.92563
1666.81252,239.50388
1666.81252,232.26781
1666.81252,230.29434
1666.81252,240.1617
1666.81252,238.84605
1668.42828,228.97869
1668.42828,238.18823
1668.42828,233.58346
1668.42828,230.95216
1668.42828,232.26781
1668.42828,229.63651
1668.42828,228.32086
1668.42828,227.66304
1668.42828,227.00521
1670.04404,232.26781
1670.04404,234.24128
1670.04404,226.34739
1670.04404,227.00521
1670.04404,227.66304
1670.04404,237.53041
1670.04404,236.87258
1670.04404,236.21476
1671.65979,229.63651
1671.65979,234.89911
1671.65979,225.68957
1671.65979,226.34739
1671.65979,232.26781
1671.65979,231.60999
1671.65979,230.95216
1671.65979,225.03174
1671.65979,235.55693
1671.65979,228.97869
1671.65979,228.32086
1671.65979,224.37392
1673.27555,224.37392
1673.27555,225.03174
1673.27555,230.29434
1673.27555,223.71609
1674.8913,225.03174
1674.8913,223.05827
1674.8913,223.71609
1676.50706,225.03174
1676.50706,223.05827
1678.12281,223.05827
1678.12281,225.03174
1679.73857,225.03174
1679.73857,223.05827
1681.35433,223.05827
1681.35433,225.03174
1681.35433,222.40044
1682.97008,222.40044
1682.97008,224.37392
1684.58584,224.37392
1684.58584,222.40044
1684.58584,223.71609
1686.20159,221.74262
1686.20159,221.08479
1686.20159,223.71609
1686.20159,223.05827
1686.20159,220.42697
1686.20159,222.40044
1687.81735,222.40044
1687.81735,223.05827
1687.81735,221.74262
1687.81735,220.42697
1687.81735,219.76915
1689.4331,219.76915
1689.4331,219.11132
1689.4331,218.4535
1689.4331,217.79567
1691.04886,217.79567
1692.66462,217.79567
1694.28037,217.79567
1695.89613,217.79567
1697.51188,217.79567
1697.51188,217.13785
1697.51188,216.48002
1697.51188,214.50655
1699.12764,215.16437
1699.12764,213.84873
1699.12764,216.48002
1700.7434,215.8222
1700.7434,213.84873
1700.7434,208.58613
1700.7434,207.27048
1700.7434,207.92831
1702.35915,205.95483
1702.35915,207.27048
1702.35915,205.29701
1702.35915,209.24395
1702.35915,213.1909
1702.35915,210.5596
1702.35915,206.61266
1703.97491,211.87525
1703.97491,211.21743
1703.97491,212.53308
1703.97491,209.90178
1703.97491,204.63918
1703.97491,203.98136
1705.59066,203.32353
1707.20642,202.66571
1707.20642,202.00789
1707.20642,201.35006
1707.20642,200.69224
1708.82217,200.69224
1710.43793,200.69224
1712.05369,200.69224
1712.05369,199.37659
1712.05369,200.03441
1712.05369,198.71876
1713.66944,198.71876
1713.66944,198.06094
1715.2852,198.06094
1716.90095,198.06094
1718.51671,198.06094
1720.13246,198.06094
1721.74822,198.06094
1723.36398,198.06094
1723.36398,197.40311
1724.97973,197.40311
1724.97973,196.74529
1726.59549,194.11399
1726.59549,196.08747
1726.59549,195.42964
1726.59549,194.77182
1726.59549,196.74529
1726.59549,193.45617
1728.21124,193.45617
1728.21124,192.79834
1729.827,192.79834
1731.44276,192.79834
1731.44276,192.14052
1733.05851,192.14052
1734.67427,192.14052
1734.67427,191.48269
1736.29002,191.48269
1737.90578,191.48269
1739.52153,191.48269
1741.13729,191.48269
1742.75305,191.48269
1744.3688,190.82487
1744.3688,190.16705
1745.98456,190.16705
1745.98456,189.50922
1745.98456,188.8514
1747.60031,188.8514
1747.60031,188.19357
1747.60031,187.53575
1747.60031,186.87792
1749.21607,186.87792
1750.83182,187.53575
1752.44758,186.87792
1754.06334,186.2201
1755.67909,186.2201
1755.67909,186.87792
1757.29485,187.53575
1757.29485,188.19357
1757.29485,188.8514
1758.9106,189.50922
1760.52636,189.50922
1762.14211,189.50922
1763.75787,189.50922
1765.37363,191.48269
1765.37363,189.50922
1765.37363,190.16705
1765.37363,190.82487
1766.98938,190.82487
1768.60514,191.48269
1770.22089,192.14052
1771.83665,192.14052
1773.45241,189.50922
1773.45241,192.14052
1773.45241,191.48269
1773.45241,190.82487
1773.45241,190.16705
1773.45241,188.8514
1775.06816,188.8514
1776.68392,188.8514
1778.29967,188.8514
1779.91543,188.19357
1781.53118,186.87792
1781.53118,187.53575
1783.14694,186.2201
1783.14694,186.87792
1784.7627,178.98403
1784.7627,186.2201
1784.7627,185.56228
1784.7627,184.90445
1784.7627,184.24663
1784.7627,183.5888
1784.7627,182.93098
1784.7627,182.27315
1784.7627,181.61533
1784.7627,180.9575
1784.7627,180.29968
1784.7627,178.32621
1784.7627,179.64186
1786.37845,177.66838
1786.37845,178.32621
1787.99421,177.01056
1787.99421,177.66838
1789.60996,176.35273
1789.60996,177.01056
1791.22572,176.35273
1792.84147,175.69491
1794.45723,175.69491
1796.07299,175.69491
1797.68874,176.35273
1799.3045,177.01056
1800.92025,177.66838
1802.53601,178.32621
1804.15177,178.98403
1805.76752,178.98403
1807.38328,178.98403
1808.99903,178.98403
1810.61479,178.98403
1812.23054,178.32621
1813.8463,178.32621
1815.46206,178.98403
1817.07781,179.64186
1818.69357,178.98403
1820.30932,178.32621
1821.92508,177.66838
1823.54083,177.66838
1825.15659,178.32621
1826.77235,178.32621
1828.3881,178.98403
1830.00386,179.64186
1831.61961,179.64186
1833.23537,179.64186
1834.85112,179.64186
1836.46688,179.64186
1838.08264,179.64186
1839.69839,179.64186
1841.31415,180.29968
1842.9299,180.29968
1844.54566,180.29968
1846.16142,180.29968
1847.77717,180.9575
1849.39293,181.61533
1851.00868,180.9575
1852.62444,180.9575
1854.24019,180.9575
1855.85595,180.9575
1857.47171,180.29968
1859.08746,179.64186
1860.70322,178.98403
1860.70322,177.66838
1860.70322,178.32621
1862.31897,177.66838
1863.93473,177.01056
1863.93473,177.66838
1865.55048,176.35273
1865.55048,175.69491
1865.55048,177.01056
1867.16624,175.69491
1868.782,174.37926
1868.782,173.72144
1868.782,175.03708
1870.39775,173.06361
1870.39775,173.72144
1872.01351,173.06361
1873.62926,172.40579
1875.24502,172.40579
1876.86078,171.74796
1878.47653,171.74796
1880.09229,172.40579
1881.70804,173.06361
1883.3238,172.40579
1884.93955,175.03708
1884.93955,175.69491
1884.93955,172.40579
1884.93955,173.06361
1884.93955,174.37926
1884.93955,173.72144
1886.55531,175.69491
1888.17107,175.69491
1889.78682,175.69491
1891.40258,175.69491
1893.01833,175.69491
1894.63409,176.35273
1896.24984,177.01056
1896.24984,178.32621
1896.24984,178.98403
1896.24984,179.64186
1896.24984,177.66838
1897.8656,179.64186
1899.48136,179.64186
1899.48136,180.9575
1899.48136,180.29968
1901.09711,181.61533
1902.71287,182.27315
1904.32862,185.56228
1904.32862,182.93098
1904.32862,183.5888
1904.32862,184.24663
1904.32862,184.90445
1905.94438,184.90445
1907.56013,184.90445
1909.17589,184.90445
1910.79165,184.90445
1912.4074,184.90445
1914.02316,184.90445
1915.63891,184.90445
1917.25467,183.5888
1917.25467,184.90445
1917.25467,184.24663
1918.87043,182.93098
1918.87043,183.5888
1920.48618,182.27315
1922.10194,181.61533
1923.71769,180.9575
1925.33345,180.29968
1926.9492,179.64186
1928.56496,178.98403
1930.18072,178.32621
1931.79647,177.66838
1933.41223,177.01056
1935.02798,177.66838
1936.64374,178.32621
1938.25949,178.98403
1939.87525,178.32621
1941.49101,177.01056
1941.49101,177.66838
1943.10676,176.35273
1943.10676,175.69491
1943.10676,177.01056
1943.10676,175.03708
1944.72252,175.03708
1946.33827,174.37926
1946.33827,173.72144
1947.95403,173.06361
1949.56979,171.74796
1949.56979,171.09014
1949.56979,173.06361
1949.56979,172.40579
1951.18554,171.74796
1951.18554,172.40579
1951.18554,171.09014
1951.18554,173.06361
1952.8013,173.06361
1954.41705,173.06361
1956.03281,173.06361
1957.64856,175.69491
1957.64856,173.72144
1957.64856,174.37926
1957.64856,173.06361
1957.64856,175.03708
1957.64856,176.35273
1959.26432,176.35273
1960.88008,177.01056
1962.49583,177.66838
1964.11159,178.32621
1965.72734,177.66838
1967.3431,177.01056
1968.95885,176.35273
1970.57461,177.01056
1972.19037,177.01056
1973.80612,177.66838
1975.42188,178.32621
1977.03763,178.98403
1978.65339,179.64186
1980.26914,180.29968
1981.8849,180.9575
1983.50066,181.61533
1985.11641,182.27315
1986.73217,182.27315
1988.34792,169.11666
1988.34792,182.93098
1988.34792,168.45884
1989.96368,171.09014
1989.96368,173.06361
1989.96368,169.77449
1989.96368,182.93098
1989.96368,171.74796
1989.96368,172.40579
1989.96368,173.72144
1991.57944,182.27315
1991.57944,173.72144
1991.57944,170.43231
1993.19519,174.37926
1993.19519,175.69491
1993.19519,176.35273
1993.19519,175.03708
1993.19519,182.93098
1994.81095,182.93098
1994.81095,176.35273
1996.4267,183.5888
1996.4267,177.01056
1996.4267,176.35273
1998.04246,184.24663
1998.04246,177.66838
1999.65821,178.32621
2001.27397,178.98403
2002.88973,178.98403
2004.50548,178.32621
2006.12124,177.66838
2007.73699,177.01056
2009.35275,177.66838
2010.9685,178.32621
2012.58426,178.98403
2014.20002,178.98403
2015.81577,178.98403
2017.43153,179.64186
2019.04728,179.64186
2020.66304,180.29968
2020.66304,179.64186
2022.2788,180.29968
2022.2788,180.9575
2022.2788,181.61533
2023.89455,180.9575
2025.51031,180.29968
2027.12606,180.29968
2028.74182,179.64186
2030.35757,179.64186
2031.97333,178.98403
2033.58909,178.32621
2035.20484,178.32621
2036.8206,178.32621
2038.43635,178.32621
2040.05211,178.32621
2041.66786,178.32621
2043.28362,177.66838
2044.89938,177.66838
2046.51513,177.66838
2048.13089,177.66838
2049.74664,177.66838
2051.3624,179.64186
2051.3624,180.9575
2051.3624,178.98403
2051.3624,178.32621
2051.3624,180.29968
2052.97815,181.61533
2054.59391,181.61533
2056.20967,181.61533
2057.82542,181.61533
2059.44118,182.27315
2059.44118,181.61533
2061.05693,182.27315
2061.05693,182.93098
2062.67269,183.5888
2084.74244,179.59495
2093.08431,179.59495
2101.42618,179.59495
2127.30292,168.45884
2128.91868,171.09014
2128.91868,169.11666
2128.91868,169.77449
2128.91868,171.74796
2130.53443,171.74796
2130.53443,170.43231
2132.15019,172.40579
2133.76594,173.06361
2133.76594,173.72144
2133.76594,174.37926
2135.3817,175.03708
2136.99746,175.03708
2138.61321,175.69491
2138.61321,175.03708
2140.22897,176.35273
2140.22897,175.69491
2141.84472,177.01056
2141.84472,176.35273
2143.46048,177.66838
2145.07623,178.32621
2146.69199,178.32621
2148.30775,177.66838
2149.9235,177.01056
2151.53926,176.35273
2153.15501,175.69491
2154.77077,176.35273
2156.38652,176.35273
2158.00228,176.35273
2159.61804,176.35273
2161.23379,176.35273
2162.84955,175.69491
2164.4653,175.03708
2166.08106,174.37926
2167.69682,174.37926
2169.31257,174.37926
2170.92833,174.37926
2172.54408,174.37926
2174.15984,174.37926
2175.77559,175.69491
2175.77559,176.35273
2175.77559,177.01056
2175.77559,175.03708
2175.77559,177.66838
2177.39135,178.32621
2179.00711,178.98403
2180.62286,179.64186
2182.23862,180.29968
2182.23862,181.61533
2182.23862,182.27315
2182.23862,180.9575
2183.85437,182.27315
2183.85437,182.93098
2185.47013,182.93098
2187.08588,183.5888
2187.08588,182.93098
2187.08588,184.24663
2187.08588,185.56228
2187.08588,184.90445
2188.70164,186.2201
2190.3174,186.2201
2190.3174,186.87792
2191.93315,186.87792
2193.54891,187.53575
2193.54891,188.19357
2193.54891,186.87792
2195.16466,188.19357
2196.78042,188.8514
2198.39617,188.8514
2200.01193,188.19357
2201.62769,187.53575
2203.24344,186.87792
2204.8592,186.87792
2206.47495,186.87792
2206.47495,186.2201
2208.09071,186.2201
2209.70647,185.56228
2209.70647,186.2201
2211.32222,185.56228
2212.93798,184.90445
2214.55373,183.5888
2214.55373,184.24663
2214.55373,182.93098
2214.55373,182.27315
2216.16949,180.9575
2216.16949,181.61533
2217.78524,180.9575
2219.401,180.9575
2221.01676,180.9575
2222.63251,180.9575
2224.24827,180.9575
2225.86402,180.9575
2227.47978,180.9575
2229.09553,180.9575
2230.71129,180.29968
2230.71129,180.9575
2232.32705,180.29968
2233.9428,178.98403
2233.9428,179.64186
2235.55856,178.32621
2237.17431,177.66838
2238.79007,177.01056
2240.40583,176.35273
2242.02158,176.35273
2243.63734,176.35273
2245.25309,175.69491
2245.25309,176.35273
2246.86885,175.69491
2246.86885,175.03708
2248.4846,173.72144
2248.4846,174.37926
2250.10036,173.06361
2251.71612,173.06361
2253.33187,173.06361
2254.94763,173.06361
2256.56338,172.40579
2256.56338,173.06361
2256.56338,170.43231
2256.56338,171.74796
2256.56338,171.09014
2256.56338,169.77449
2258.17914,169.11666
2259.79489,169.11666
2261.41065,169.77449
2263.02641,170.43231
2264.64216,169.77449
2266.25792,169.11666
2267.87367,169.77449
2267.87367,169.11666
2269.48943,169.77449
2271.10518,169.77449
2272.72094,170.43231
2274.3367,171.74796
2274.3367,171.09014
2275.95245,175.03708
2275.95245,171.74796
2275.95245,172.40579
2275.95245,173.06361
2275.95245,173.72144
2275.95245,174.37926
2277.56821,175.03708
2279.18396,175.69491
2280.79972,175.69491
2282.41548,175.69491
2284.03123,175.69491
2285.64699,176.35273
2285.64699,175.69491
2287.26274,176.35273
2288.8785,176.35273
2288.8785,177.01056
2290.49425,177.01056
2292.11001,177.66838
2293.72577,179.64186
2293.72577,178.32621
2293.72577,178.98403
2295.34152,179.64186
2296.95728,180.29968
2298.57303,184.24663
2298.57303,180.9575
2298.57303,181.61533
2298.57303,182.27315
2298.57303,182.93098
2298.57303,183.5888
2300.18879,184.24663
2301.80454,186.2201
2301.80454,184.24663
2301.80454,184.90445
2301.80454,185.56228
2303.4203,190.16705
2303.4203,186.87792
2305.03606,187.53575
2305.03606,188.19357
2305.03606,190.82487
2305.03606,189.50922
2305.03606,188.8514
2306.65181,191.48269
2308.26757,192.14052
2309.88332,192.79834
2311.49908,199.37659
2311.49908,193.45617
2311.49908,194.11399
2311.49908,194.77182
2311.49908,195.42964
2311.49908,196.08747
2311.49908,196.74529
2311.49908,197.40311
2311.49908,198.06094
2311.49908,198.71876
2313.11484,200.03441
2314.73059,200.69224
2316.34635,201.35006
2317.9621,204.63918
2317.9621,202.00789
2317.9621,202.66571
2317.9621,203.32353
2317.9621,203.98136
2319.57786,207.92831
2319.57786,207.27048
2319.57786,206.61266
2319.57786,205.29701
2321.19361,205.95483
2321.19361,207.92831
2322.80937,208.58613
2324.42513,208.58613
2326.04088,208.58613
2327.65664,208.58613
2329.27239,209.24395
2330.88815,209.24395
2332.5039,208.58613
2334.11966,207.27048
2334.11966,206.61266
2334.11966,205.95483
2334.11966,205.29701
2334.11966,207.92831
2335.73542,204.63918
2337.35117,203.98136
2338.96693,202.66571
2338.96693,203.98136
2338.96693,203.32353
2338.96693,202.00789
2340.58268,200.69224
2340.58268,202.00789
2340.58268,201.35006
2342.19844,199.37659
2342.19844,200.69224
2342.19844,200.03441
2342.19844,198.71876
2343.81419,198.06094
2345.42995,197.40311
2345.42995,198.06094
2347.04571,196.08747
2347.04571,197.40311
2347.04571,196.74529
2348.66146,196.08747
2350.27722,194.77182
2350.27722,195.42964
2351.89297,194.77182
2351.89297,194.11399
2353.50873,193.45617
2353.50873,194.11399
2355.12449,192.14052
2355.12449,193.45617
2355.12449,192.79834
2356.74024,191.48269
2356.74024,192.14052
2358.356,191.48269
2359.97175,191.48269
2361.58751,191.48269
2363.20326,191.48269
2364.81902,191.48269
2366.43478,191.48269
2368.05053,191.48269
2369.66629,191.48269
2371.28204,191.48269
2371.28204,190.82487
2371.28204,190.16705
2372.8978,190.16705
2374.51355,184.24663
2374.51355,180.29968
2374.51355,180.9575
2374.51355,181.61533
2374.51355,182.27315
2374.51355,182.93098
2374.51355,183.5888
2374.51355,186.2201
2374.51355,184.90445
2374.51355,185.56228
2374.51355,190.16705
2374.51355,186.87792
2374.51355,187.53575
2374.51355,188.19357
2374.51355,188.8514
2374.51355,189.50922
2376.12931,180.29968
2377.74507,180.9575
2379.36082,181.61533
2380.97658,180.9575
2382.59233,180.29968
2384.20809,180.29968
2385.82385,182.27315
2385.82385,180.9575
2385.82385,181.61533
2387.4396,182.93098
2389.05536,185.56228
2389.05536,183.5888
2389.05536,184.24663
2389.05536,184.90445
2389.05536,186.2201
2390.67111,186.2201
2392.28687,186.2201
2393.90262,186.2201
2395.51838,186.2201
2397.13414,186.2201
2398.74989,186.87792
2400.36565,193.45617
2400.36565,187.53575
2400.36565,188.19357
2400.36565,188.8514
2400.36565,189.50922
2400.36565,190.16705
2400.36565,190.82487
2400.36565,191.48269
2400.36565,192.14052
2400.36565,192.79834
2401.9814,194.11399
2403.59716,193.45617
2405.21291,192.79834
2406.82867,192.14052
2408.44443,192.79834
2410.06018,193.45617
2411.67594,194.11399
2413.29169,193.45617
2413.29169,194.11399
2414.90745,191.48269
2414.90745,193.45617
2414.90745,192.79834
2414.90745,192.14052
2416.5232,191.48269
2418.13896,191.48269
2419.75472,191.48269
2421.37047,191.48269
2422.98623,191.48269
2424.60198,191.48269
2426.21774,191.48269
2427.8335,190.82487
2429.44925,191.48269
2431.06501,191.48269
2432.68076,192.14052
2434.29652,192.79834
2435.91227,193.45617
2437.52803,194.11399
2439.14379,194.11399
2440.75954,194.11399
2442.3753,193.45617
2443.99105,192.79834
2443.99105,193.45617
2445.60681,192.14052
2445.60681,192.79834
2445.60681,191.48269
2447.22256,190.82487
2447.22256,190.16705
2447.22256,189.50922
2447.22256,188.8514
2447.22256,191.48269
2448.83832,188.8514
2450.45408,189.50922
2452.06983,190.16705
2453.68559,190.16705
2455.30134,190.82487
2456.9171,190.82487
2458.53286,190.82487
2460.14861,190.16705
2461.76437,189.50922
2463.38012,188.8514
2464.99588,189.50922
2464.99588,188.8514
2466.61163,189.50922
2468.22739,189.50922
2469.84315,191.48269
2469.84315,189.50922
2469.84315,190.16705
2469.84315,190.82487
2469.84315,193.45617
2469.84315,192.14052
2469.84315,192.79834
2471.4589,193.45617
2473.07466,193.45617
2474.69041,193.45617
2476.30617,193.45617
2477.92192,193.45617
2479.53768,193.45617
2481.15344,193.45617
2482.76919,194.11399
2482.76919,193.45617
2484.38495,194.11399
2486.0007,193.45617
2487.61646,192.79834
2489.23221,192.79834
2490.84797,192.14052
2492.46373,190.82487
2492.46373,191.48269
2494.07948,189.50922
2494.07948,190.82487
2494.07948,190.16705
2495.69524,189.50922
2497.31099,189.50922
2498.92675,189.50922
2498.92675,188.8514
2500.54251,188.8514
2500.54251,188.19357
2502.15826,185.56228
2502.15826,188.19357
2502.15826,187.53575
2502.15826,186.87792
2502.15826,186.2201
2502.15826,184.90445
2503.77402,184.24663
2503.77402,184.90445
2505.38977,183.5888
2505.38977,184.24663
2507.00553,182.93098
2508.62128,182.93098
2510.23704,182.93098
2511.8528,183.5888
2513.46855,184.24663
2515.08431,184.90445
2516.70006,184.24663
2518.31582,183.5888
2519.93157,183.5888
2521.54733,183.5888
2523.16309,183.5888
2524.77884,182.93098
2526.3946,182.27315
2528.01035,182.27315
2529.62611,181.61533
2531.24187,181.61533
2532.85762,182.27315
2534.47338,182.93098
2536.08913,183.5888
2537.70489,184.24663
2539.32064,184.24663
2540.9364,183.5888
2542.55216,182.93098
2544.16791,182.27315
2545.78367,182.27315
2547.39942,186.87792
2547.39942,182.93098
2547.39942,183.5888
2549.01518,183.5888
2549.01518,186.2201
2549.01518,187.53575
2549.01518,185.56228
2549.01518,184.90445
2549.01518,184.24663
2550.63093,188.19357
2550.63093,188.8514
2552.24669,189.50922
2552.24669,190.16705
2552.24669,190.82487
2552.24669,191.48269
2552.24669,192.14052
2552.24669,192.79834
2581.33029,180.9575
2581.33029,181.61533
2582.94605,182.27315
2584.56181,182.27315
2584.56181,182.93098
2584.56181,183.5888
2584.56181,184.24663
2584.56181,184.90445
2584.56181,185.56228
2586.17756,186.2201
2587.79332,186.87792
2589.40907,187.53575
2591.02483,188.19357
2591.02483,188.8514
2592.64058,189.50922
2594.25634,189.50922
2595.8721,189.50922
2597.48785,189.50922
2599.10361,189.50922
2599.10361,190.16705
2600.71936,190.82487
2600.71936,191.48269
2602.33512,192.14052
2603.95088,192.14052
2605.56663,192.14052
2607.18239,192.14052
2607.18239,194.11399
2607.18239,193.45617
2607.18239,192.79834
2607.18239,194.77182
2607.18239,195.42964
2608.79814,195.42964
2610.4139,196.08747
2612.02965,196.08747
2613.64541,196.08747
2615.26117,196.08747
2616.87692,195.42964
2618.49268,195.42964
2618.49268,194.77182
2620.10843,194.77182
2620.10843,194.11399
2621.72419,194.11399
2623.33994,193.45617
2624.9557,192.79834
2626.57146,192.14052
2628.18721,191.48269
2629.80297,191.48269
2631.41872,190.82487
2633.03448,191.48269
2634.65023,192.14052
2636.26599,192.79834
2637.88175,192.79834
2639.4975,192.14052
2641.11326,192.14052
2642.72901,191.48269
2644.34477,190.82487
2645.96053,190.82487
2645.96053,190.16705
2647.57628,190.16705
2647.57628,189.50922
2649.19204,189.50922
2649.19204,188.8514
2650.80779,188.8514
2650.80779,188.19357
2650.80779,187.53575
2652.42355,187.53575
2654.0393,186.87792
2655.65506,186.2201
2657.27082,186.2201
2658.88657,186.2201
2660.50233,186.87792
2662.11808,186.87792
2663.73384,186.87792
2665.34959,187.53575
2666.96535,187.53575
2666.96535,188.19357
2668.58111,188.8514
2670.19686,189.50922
2670.19686,191.48269
2670.19686,192.14052
2670.19686,192.79834
2670.19686,193.45617
2670.19686,190.16705
2670.19686,190.82487
2671.81262,194.11399
2673.42837,194.11399
2675.04413,194.11399
2676.65989,194.77182
2678.27564,194.77182
2679.8914,194.11399
2681.50715,193.45617
2683.12291,192.79834
2684.73866,192.79834
2686.35442,194.11399
2686.35442,193.45617
2687.97018,194.77182
2689.58593,196.08747
2689.58593,194.77182
2689.58593,195.42964
2691.20169,196.08747
2692.81744,195.42964
2694.4332,194.77182
2696.04895,194.11399
2697.66471,194.11399
2699.28047,194.11399
2700.89622,194.77182
2702.51198,195.42964
2704.12773,196.08747
2705.74349,196.74529
2707.35924,196.74529
2708.975,196.08747
2708.975,193.45617
2708.975,194.11399
2708.975,194.77182
2708.975,195.42964
2708.975,192.79834
2710.59076,192.79834
2712.20651,192.79834
2713.82227,192.79834
2715.43802,192.79834
2717.05378,192.79834
2718.66954,192.14052
2718.66954,192.79834
2720.28529,191.48269
2720.28529,192.14052
2721.90105,187.53575
2721.90105,190.82487
2721.90105,190.16705
2721.90105,189.50922
2721.90105,188.8514
2721.90105,188.19357
2723.5168,187.53575
2725.13256,186.87792
2725.13256,187.53575
2726.74831,186.87792
2728.36407,187.53575
2729.97983,187.53575
2731.59558,187.53575
2733.21134,186.87792
2734.82709,186.2201
2736.44285,186.87792
2738.0586,186.2201
2739.67436,185.56228
2741.29012,184.90445
2742.90587,184.90445
2744.52163,184.90445
2746.13738,184.24663
2747.75314,183.5888
2749.3689,182.93098
2750.98465,182.27315
2752.60041,182.93098
2754.21616,183.5888
2755.83192,184.24663
2757.44767,184.24663
2759.06343,184.24663
2760.67919,183.5888
2762.29494,182.93098
2763.9107,183.5888
2765.52645,183.5888
2767.14221,182.93098
2768.75796,182.27315
2770.37372,182.27315
2771.98948,182.27315
2773.60523,182.27315
2775.22099,182.93098
2776.83674,183.5888
2778.4525,182.93098
2780.06825,182.27315
2781.68401,182.27315
2783.29977,182.93098
2784.91552,183.5888
2786.53128,184.24663
2788.14703,184.90445
2789.76279,184.90445
2791.37855,184.24663
2792.9943,184.24663
2794.61006,184.90445
2796.22581,184.24663
2797.84157,183.5888
2799.45732,182.93098
2801.07308,182.93098
2802.68884,182.93098
2804.30459,182.93098
2805.92035,184.24663
2805.92035,184.90445
2805.92035,185.56228
2805.92035,186.2201
2805.92035,186.87792
2805.92035,183.5888
2807.5361,187.53575
2809.15186,188.19357
2809.15186,187.53575
2810.76761,188.8514
2810.76761,188.19357
2812.38337,188.8514
2813.99913,189.50922
2815.61488,189.50922
2817.23064,189.50922
2818.84639,189.50922
2820.46215,189.50922
2822.07791,189.50922
2823.69366,189.50922
2825.30942,189.50922
2826.92517,190.16705
2828.54093,190.16705
2830.15668,190.16705
2831.77244,190.82487
2833.3882,190.16705
2835.00395,190.16705
2836.61971,190.16705
2838.23546,190.16705
2838.23546,184.90445
2838.23546,185.56228
2839.85122,192.14052
2839.85122,187.53575
2839.85122,186.87792
2839.85122,186.2201
2839.85122,191.48269
2839.85122,190.82487
2839.85122,194.11399
2839.85122,192.79834
2839.85122,193.45617
2839.85122,194.77182
2841.46697,189.50922
2841.46697,188.8514
2841.46697,190.16705
2841.46697,190.82487
2841.46697,195.42964
2841.46697,192.14052
2841.46697,187.53575
2841.46697,188.19357
2841.46697,192.79834
2841.46697,193.45617
2841.46697,194.11399
2841.46697,194.77182
2841.46697,191.48269
2843.08273,196.08747
2843.08273,196.74529
2844.69849,197.40311
2846.31424,198.06094
2847.93,198.06094
2849.54575,198.06094
2849.54575,198.71876
2851.16151,198.71876
2851.16151,199.37659
2852.77726,199.37659
2852.77726,200.03441
2854.39302,200.03441
2856.00878,200.03441
2856.00878,200.69224
2857.62453,200.69224
2859.24029,200.69224
2860.85604,200.69224
2862.4718,200.69224
2864.08756,200.69224
2865.70331,200.69224
2867.31907,201.35006
2867.31907,202.00789
2868.93482,202.00789
2870.55058,202.00789
2872.16633,202.66571
2873.78209,203.32353
2875.39785,203.98136
2877.0136,203.98136
2878.62936,205.29701
2878.62936,204.63918
2878.62936,203.98136
2880.24511,205.95483
2881.86087,206.61266
2883.47662,207.27048
2885.09238,207.27048
2886.70814,207.27048
2888.32389,207.27048
2889.93965,209.90178
2889.93965,207.27048
2889.93965,207.92831
2889.93965,208.58613
2889.93965,209.24395
2891.5554,210.5596
2893.17116,210.5596
2894.78692,209.90178
2896.40267,209.24395
2898.01843,209.24395
2899.63418,209.90178
2901.24994,210.5596
2902.86569,210.5596
2904.48145,209.90178
2906.09721,209.24395
2907.71296,208.58613
2909.32872,207.92831
2910.94447,207.92831
2912.56023,208.58613
2912.56023,207.92831
2914.17598,212.53308
2914.17598,211.87525
2914.17598,213.1909
2914.17598,210.5596
2914.17598,209.90178
2914.17598,209.24395
2914.17598,211.21743
2914.17598,208.58613
2915.79174,213.84873
2915.79174,213.1909
2917.4075,213.84873
2919.02325,213.84873
2920.63901,213.84873
2922.25476,213.84873
2923.87052,213.84873
2923.87052,214.50655
2925.48627,216.48002
2925.48627,217.13785
2925.48627,217.79567
2925.48627,218.4535
2925.48627,219.11132
2925.48627,215.8222
2925.48627,215.16437
2925.48627,214.50655
2927.10203,219.11132
2928.71779,219.76915
2930.33354,219.11132
2931.9493,218.4535
2933.56505,218.4535
2935.18081,219.11132
2936.79657,219.11132
2938.41232,219.11132
2940.02808,217.13785
2940.02808,218.4535
2940.02808,217.79567
2940.02808,216.48002
2941.64383,215.8222
2943.25959,215.16437
2944.87534,215.16437
2946.4911,215.16437
2948.10686,215.16437
2949.72261,215.8222
2951.33837,215.8222
2952.95412,216.48002
2952.95412,215.8222
2954.56988,216.48002
2956.18563,217.13785
2956.18563,216.48002
2957.80139,217.79567
2957.80139,218.4535
2957.80139,221.08479
2957.80139,219.76915
2957.80139,220.42697
2957.80139,217.13785
2957.80139,219.11132
2959.41715,221.08479
2961.0329,221.08479
2962.64866,221.08479
2964.26441,220.42697
2965.88017,219.76915
2967.49593,219.11132
2969.11168,218.4535
2970.72744,218.4535
2972.34319,218.4535
2973.95895,219.11132
2975.5747,219.76915
2977.19046,220.42697
2978.80622,219.76915
2978.80622,220.42697
2980.42197,215.8222
2980.42197,218.4535
2980.42197,219.76915
2980.42197,219.11132
2980.42197,217.79567
2980.42197,217.13785
2980.42197,216.48002
2982.03773,214.50655
2982.03773,213.84873
2982.03773,215.16437
2983.65348,213.84873
2985.26924,213.84873
2986.88499,213.84873
2988.50075,213.84873
2990.11651,213.84873
2991.73226,213.84873
2991.73226,213.1909
2991.73226,212.53308
2993.34802,210.5596
2993.34802,211.21743
2993.34802,211.87525
2993.34802,212.53308
2993.34802,209.90178
2994.96377,209.24395
2996.57953,208.58613
2998.19528,208.58613
2999.81104,208.58613
3001.4268,209.24395
3003.04255,209.24395
3003.04255,209.90178
3004.65831,209.90178
3004.65831,210.5596
3006.27406,210.5596
3006.27406,211.21743
3007.88982,211.21743
3009.50558,213.84873
3009.50558,213.1909
3009.50558,212.53308
3009.50558,215.16437
3009.50558,214.50655
3009.50558,211.87525
3011.12133,215.8222
3012.73709,215.8222
3014.35284,215.8222
3015.9686,215.8222
3017.58435,215.8222
3019.20011,215.16437
3020.81587,215.16437
3022.43162,212.53308
3022.43162,214.50655
3022.43162,213.84873
3022.43162,211.21743
3022.43162,213.1909
3022.43162,211.87525
3024.04738,211.21743
3025.66313,210.5596
3027.27889,211.21743
3028.89464,211.87525
3030.5104,212.53308
3032.12616,213.1909
3033.74191,213.1909
3035.35767,212.53308
3036.97342,211.87525
3038.58918,211.21743
3040.20494,214.50655
3040.20494,213.84873
3040.20494,213.1909
3040.20494,212.53308
3040.20494,211.87525
3040.20494,211.21743
3040.20494,215.16437
3041.82069,215.8222
3043.43645,215.8222
3045.0522,215.8222
3045.0522,216.48002
3046.66796,217.13785
3048.28371,217.13785
3049.89947,216.48002
3051.51523,215.8222
3053.13098,215.16437
3054.74674,215.16437
3056.36249,215.16437
3057.97825,215.16437
3059.594,215.8222
3061.20976,216.48002
3062.82552,215.8222
3064.44127,215.8222
3066.05703,215.8222
3067.67278,215.8222
3069.28854,215.16437
3070.90429,214.50655
3072.52005,214.50655
3074.13581,215.16437
3075.75156,215.8222
3077.36732,216.48002
3078.98307,215.8222
3080.59883,215.8222
3082.21459,215.8222
3083.83034,216.48002
3085.4461,217.13785
3087.06185,217.13785
3088.67761,217.13785
3090.29336,217.13785
3091.90912,217.13785
3093.52488,216.48002
3095.14063,215.8222
3096.75639,215.16437
3098.37214,214.50655
3099.9879,213.84873
3101.60365,214.50655
3101.60365,215.16437
3101.60365,215.8222
3101.60365,216.48002
3101.60365,217.13785
3103.21941,217.79567
3104.83517,217.13785
3104.83517,217.79567
3106.45092,217.79567
3108.06668,217.13785
3109.68243,216.48002
3111.29819,215.8222
3112.91395,215.16437
3114.5297,215.16437
3116.14546,215.16437
3117.76121,215.16437
3119.37697,215.8222
3120.99272,216.48002
3122.60848,217.13785
3124.22424,217.79567
3125.83999,215.16437
3125.83999,217.13785
3125.83999,216.48002
3125.83999,215.8222
3125.83999,214.50655
3127.45575,213.84873
3129.0715,213.84873
3130.68726,213.84873
3132.30301,213.84873
3133.91877,214.50655
3135.53453,215.16437
3137.15028,215.8222
3138.76604,217.13785
3138.76604,216.48002
3140.38179,216.48002
3141.99755,215.8222
3143.6133,215.16437
3145.22906,215.16437
3146.84482,214.50655
3148.46057,214.50655
3150.07633,215.16437
3151.69208,215.8222
3153.30784,215.8222
3154.9236,216.48002
3154.9236,217.13785
3154.9236,217.79567
3156.53935,219.11132
3156.53935,217.79567
3156.53935,218.4535
3158.15511,219.11132
3159.77086,218.4535
3161.38662,217.79567
3163.00237,217.13785
3164.61813,217.79567
3166.23389,217.13785
3167.84964,218.4535
3167.84964,217.79567
3167.84964,219.76915
3167.84964,219.11132
3167.84964,220.42697
3169.4654,221.08479
3171.08115,221.74262
3171.08115,221.08479
3172.69691,221.74262
3174.31266,221.74262
3175.92842,221.08479
3177.54418,220.42697
3179.15993,219.76915
3180.77569,219.76915
3182.39144,219.76915
3184.0072,220.42697
3185.62296,221.08479
3187.23871,221.08479
3188.85447,221.08479
3190.47022,221.74262
3192.08598,221.74262
3193.70173,221.74262
3195.31749,221.74262
3196.93325,221.74262
3198.549,221.08479
3200.16476,217.79567
3200.16476,221.08479
3200.16476,220.42697
3200.16476,219.76915
3200.16476,219.11132
3200.16476,218.4535
3201.78051,217.13785
3201.78051,217.79567
3203.39627,217.13785
3203.39627,216.48002
3205.01202,216.48002
3206.62778,215.8222
3206.62778,216.48002
3208.24354,215.16437
3209.85929,215.16437
3211.47505,215.16437
3213.0908,214.50655
3214.70656,214.50655
3216.32231,214.50655
3217.93807,213.84873
3219.55383,213.84873
3221.16958,214.50655
3222.78534,215.16437
3224.40109,215.8222
3226.01685,216.48002
3227.63261,216.48002
3229.24836,213.84873
3229.24836,215.8222
3229.24836,215.16437
3229.24836,214.50655
3230.86412,213.84873
3232.47987,213.84873
3234.09563,213.84873
3235.71138,210.5596
3235.71138,213.84873
3235.71138,213.1909
3235.71138,212.53308
3235.71138,211.87525
3235.71138,211.21743
3237.32714,210.5596
3238.9429,209.24395
3238.9429,210.5596
3238.9429,209.90178
3240.55865,208.58613
3240.55865,209.24395
3242.17441,208.58613
3243.79016,208.58613
3245.40592,202.00789
3245.40592,208.58613
3245.40592,207.92831
3245.40592,207.27048
3245.40592,206.61266
3245.40592,205.95483
3247.02167,205.29701
3247.02167,202.00789
3248.63743,202.00789
3248.63743,204.63918
3250.25319,202.00789
3250.25319,203.98136
3251.86894,203.32353
3251.86894,202.00789
3251.86894,202.66571
3268.0265,210.5596
3269.64226,209.90178
3271.25801,209.90178
3272.87377,209.90178
3274.48952,209.90178
3276.10528,209.24395
3276.10528,208.58613
3277.72103,208.58613
3277.72103,207.92831
3279.33679,207.92831
3280.95255,207.92831
3282.5683,207.27048
3282.5683,206.61266
3282.5683,205.95483
3284.18406,205.95483
3285.79981,205.95483
3287.41557,205.95483
3289.03132,205.95483
3289.03132,205.29701
3289.03132,204.63918
3289.03132,203.98136
3289.03132,203.32353
3289.03132,202.66571
3289.03132,202.00789
3289.03132,201.35006
3290.64708,201.35006
3292.26284,201.35006
3293.87859,201.35006
3295.49435,201.35006
3297.1101,200.69224
3298.72586,200.03441
3300.34162,199.37659
3300.34162,198.71876
3300.34162,198.06094
3300.34162,197.40311
3300.34162,196.74529
3301.95737,196.74529
3303.57313,196.74529
3305.18888,197.40311
3306.80464,198.06094
3308.42039,198.71876
3310.03615,198.71876
3311.65191,198.71876
3313.26766,198.06094
3314.88342,197.40311
3316.49917,197.40311
3318.11493,198.06094
3319.73068,198.71876
3321.34644,199.37659
3322.9622,199.37659
3324.57795,199.37659
3326.19371,199.37659
3327.80946,200.03441
3329.42522,200.03441
3331.04098,200.03441
3332.65673,200.03441
3334.27249,200.69224
3335.88824,200.69224
3337.504,200.03441
3339.11975,200.03441
3340.73551,200.03441
3342.35127,200.03441
3343.96702,200.03441
3345.58278,200.69224
3347.19853,201.35006
3347.19853,195.42964
3348.81429,200.69224
3348.81429,196.08747
3350.43004,200.69224
3350.43004,196.08747
3352.0458,200.69224
3352.0458,195.42964
3353.66156,201.35006
3353.66156,195.42964
3353.66156,200.69224
3369.81911,185.56228
3389.20818,184.90445
3389.20818,185.56228
3390.82394,184.90445
3392.43969,184.24663
3392.43969,183.5888
3392.43969,182.93098
3392.43969,182.27315
3392.43969,184.90445
3394.05545,182.27315
3395.67121,181.61533
3395.67121,180.9575
3395.67121,180.29968
3395.67121,182.27315
3397.28696,180.29968
3398.90272,180.29968
3398.90272,179.64186
3398.90272,178.98403
3398.90272,175.03708
3398.90272,175.69491
3398.90272,176.35273
3398.90272,177.01056
3398.90272,177.66838
3398.90272,178.32621
3400.51847,175.03708
3400.51847,174.37926
3402.13423,173.72144
3402.13423,174.37926
3403.74999,173.72144
3405.36574,174.37926
3406.9815,175.03708
3408.59725,175.69491
3410.21301,176.35273
3411.82876,177.01056
3413.44452,177.66838
3415.06028,177.66838
3416.67603,177.66838
3416.67603,178.32621
3418.29179,177.66838
3419.90754,178.32621
3421.5233,177.66838
3423.13905,177.01056
3424.75481,176.35273
3426.37057,177.01056
3427.98632,177.66838
3429.60208,178.32621
3431.21783,178.32621
3432.83359,177.66838
3434.44934,177.01056
3436.0651,177.01056
3437.68086,177.01056
3439.29661,177.01056
3440.91237,177.01056
3442.52812,177.66838
3444.14388,177.66838
3445.75964,177.01056
3447.37539,176.35273
3448.99115,175.69491
3450.6069,176.35273
3452.22266,177.01056
3453.83841,177.66838
3455.45417,177.66838
3457.06993,177.01056
3458.68568,176.35273
3460.30144,177.01056
3461.91719,176.35273
3463.53295,176.35273
3465.1487,176.35273
3466.76446,176.35273
3468.38022,176.35273
3469.99597,175.69491
3471.61173,175.03708
3473.22748,174.37926
3474.84324,173.72144
3476.459,173.72144
3478.07475,173.72144
3479.69051,174.37926
3481.30626,175.03708
3482.92202,175.69491
3484.53777,176.35273
3486.15353,177.01056
3487.76929,177.01056
3489.38504,177.01056
3491.0008,177.01056
3491.0008,176.35273
3492.61655,175.69491
3492.61655,176.35273
3492.61655,175.03708
3492.61655,174.37926
3492.61655,173.72144
3494.23231,173.06361
3495.84806,173.06361
3497.46382,173.72144
3499.07958,174.37926
3500.69533,175.03708
3502.31109,175.69491
3503.92684,176.35273
3505.5426,176.35273
3505.5426,177.01056
3507.15835,177.01056
3508.77411,176.35273
3510.38987,175.69491
3512.00562,175.03708
3513.62138,175.03708
3515.23713,175.69491
3516.85289,176.35273
3518.46865,177.01056
3520.0844,177.01056
3521.70016,177.01056
3523.31591,177.01056
3524.93167,176.35273
3526.54742,175.69491
3526.54742,175.03708
3526.54742,174.37926
3526.54742,173.72144
3526.54742,173.06361
3526.54742,172.40579
3528.16318,172.40579
3529.77894,172.40579
3531.39469,171.74796
3533.01045,171.74796
3534.6262,171.74796
3536.24196,171.74796
3537.85771,172.40579
3539.47347,172.40579
3539.47347,173.06361
3541.08923,173.06361
3542.70498,173.06361
3542.70498,173.72144
3542.70498,174.37926
3544.32074,174.37926
3545.93649,174.37926
3547.55225,174.37926
3549.16801,175.03708
3550.78376,174.37926
3550.78376,175.03708
3550.78376,176.35273
3550.78376,175.69491
3552.39952,177.01056
3554.01527,177.66838
3555.63103,178.32621
3557.24678,178.32621
3558.86254,178.32621
3558.86254,178.98403
3560.4783,178.98403
3560.4783,179.64186
3562.09405,180.29968
3563.70981,180.29968
3565.32556,179.64186
3566.94132,178.98403
3568.55707,178.32621
3570.17283,177.66838
3571.78859,178.32621
3571.78859,177.66838
3573.40434,178.32621
3575.0201,178.98403
3576.63585,178.32621
3578.25161,177.66838
3579.86736,177.01056
3581.48312,176.35273
3583.09888,175.69491
3584.71463,175.03708
3586.33039,175.03708
3587.94614,175.03708
3589.5619,175.03708
3591.17766,175.69491
3591.17766,176.35273
3591.17766,177.01056
3591.17766,177.66838
3591.17766,178.32621
3592.79341,178.32621
3594.40917,178.32621
3596.02492,178.32621
3597.64068,178.98403
3599.25643,179.64186
3600.87219,180.29968
3602.48795,180.29968
3604.1037,179.64186
3605.71946,178.98403
3607.33521,178.32621
3608.95097,178.32621
3610.56672,178.98403
3612.18248,178.98403
3613.79824,179.64186
3613.79824,180.29968
3613.79824,180.9575
3615.41399,180.9575
3617.02975,180.9575
3617.02975,182.27315
3617.02975,182.93098
3617.02975,181.61533
3618.6455,184.24663
3618.6455,183.5888
3620.26126,184.90445
3620.26126,184.24663
3621.87702,184.90445
3623.49277,184.24663
3625.10853,184.24663
3626.72428,184.90445
3628.34004,185.56228
3629.95579,186.2201
3631.57155,186.87792
3633.18731,186.87792
3633.18731,186.2201
3633.18731,185.56228
3633.18731,184.90445
3633.18731,187.53575
3634.80306,184.90445
3636.41882,184.90445
3638.03457,183.5888
3638.03457,182.93098
3638.03457,184.24663
3639.65033,182.93098
3641.26608,182.93098
3642.88184,182.93098
3644.4976,183.5888
3646.11335,184.24663
3647.72911,184.24663
3649.34486,184.24663
3650.96062,184.90445
3652.57637,184.90445
3654.19213,184.90445
3655.80789,184.24663
3657.42364,184.24663
3659.0394,183.5888
3660.65515,183.5888
3662.27091,183.5888
3663.88667,182.93098
3665.50242,182.27315
3667.11818,181.61533
3668.73393,180.9575
3668.73393,180.29968
3668.73393,179.64186
3668.73393,181.61533
3670.34969,179.64186
3671.96544,180.29968
3673.5812,180.9575
3675.19696,180.29968
3676.81271,179.64186
3678.42847,179.64186
3680.04422,180.29968
3681.65998,180.29968
3683.27573,180.9575
3684.89149,180.9575
3686.50725,180.29968
3686.50725,178.98403
3686.50725,178.32621
3686.50725,177.66838
3686.50725,179.64186
3688.123,177.66838
3689.73876,177.66838
3691.35451,177.01056
3692.97027,177.01056
3694.58603,177.01056
3696.20178,178.32621
3696.20178,177.66838
3697.81754,178.98403
3699.43329,178.98403
3701.04905,179.64186
3701.04905,178.98403
3701.04905,180.29968
3702.6648,180.9575
3704.28056,180.9575
3705.89632,180.29968
3707.51207,179.64186
3709.12783,178.98403
3710.74358,178.98403
3712.35934,178.32621
3713.97509,178.32621
3715.59085,178.32621
3717.20661,178.98403
3718.82236,179.64186
3720.43812,178.98403
3722.05387,178.32621
3723.66963,177.66838
3725.28538,178.32621
3726.90114,178.32621
3728.5169,188.19357
3728.5169,179.64186
3728.5169,178.98403
3728.5169,180.29968
3728.5169,180.9575
3728.5169,181.61533
3728.5169,182.27315
3728.5169,182.93098
3730.13265,182.93098
3730.13265,188.19357
3731.74841,183.5888
3731.74841,182.93098
3731.74841,188.8514
3733.36416,188.8514
3733.36416,184.24663
3734.97992,188.8514
3734.97992,184.24663
3736.59568,188.8514
3736.59568,184.24663
3736.59568,188.19357
3738.21143,188.19357
3738.21143,184.90445
3739.82719,188.19357
3739.82719,185.56228
3741.44294,186.2201
3741.44294,188.19357
3743.0587,187.53575
3743.0587,186.87792
3744.67445,188.19357
3744.67445,187.53575
3746.29021,186.87792
3746.29021,188.8514
3747.90597,186.2201
3747.90597,189.50922
3749.52172,185.56228
3749.52172,184.90445
3749.52172,189.50922
3749.52172,184.24663
3751.13748,184.24663
3751.13748,182.93098
3751.13748,189.50922
3751.13748,183.5888
3752.75323,189.50922
3752.75323,182.27315
3754.36899,189.50922
3754.36899,181.61533
3755.98474,181.61533
3755.98474,189.50922
3757.6005,181.61533
3757.6005,189.50922
3757.6005,180.9575
3759.21626,180.9575
3759.21626,189.50922
3760.83201,180.9575
3760.83201,180.29968
3760.83201,189.50922
3762.44777,190.82487
3762.44777,190.16705
3762.44777,179.64186
3764.06352,192.79834
3764.06352,193.45617
3764.06352,191.48269
3764.06352,190.82487
3764.06352,179.64186
3764.06352,192.14052
3765.67928,179.64186
3765.67928,193.45617
3767.29504,194.11399
3767.29504,180.29968
3768.91079,180.9575
3768.91079,194.11399
3770.52655,181.61533
3770.52655,194.11399
3772.1423,194.11399
3773.75806,193.45617
3775.37381,193.45617
3775.37381,192.79834
3776.98957,192.79834
3778.60533,192.79834
3780.22108,192.14052
3780.22108,191.48269
3781.83684,190.82487
3783.45259,190.16705
3783.45259,190.82487
3785.06835,190.16705
3785.06835,189.50922
3786.6841,188.19357
3786.6841,188.8514
3786.6841,189.50922
3786.6841,187.53575
3788.29986,187.53575
3789.91562,187.53575
3791.53137,186.87792
3793.14713,186.87792
3794.76288,186.87792
3796.37864,187.53575
3796.37864,188.8514
3796.37864,188.19357
3796.37864,189.50922
3797.99439,190.16705
3797.99439,189.50922
3799.61015,189.50922
3801.22591,188.8514
3802.84166,188.19357
3804.45742,188.8514
3806.07317,189.50922
3807.68893,190.16705
3809.30469,190.16705
3810.92044,189.50922
3812.5362,188.8514
3812.5362,189.50922
3814.15195,188.8514
3814.15195,188.19357
3815.76771,187.53575
3815.76771,188.19357
3817.38346,187.53575
3817.38346,186.2201
3817.38346,185.56228
3817.38346,186.87792
3818.99922,185.56228
3820.61498,186.2201
3822.23073,185.56228
3823.84649,184.90445
3825.46224,184.90445
3827.078,185.56228
3828.69375,185.56228
3830.30951,186.2201
3830.30951,186.87792
3830.30951,185.56228
3830.30951,188.19357
3830.30951,188.8514
3830.30951,187.53575
3831.92527,188.8514
3833.54102,188.19357
3835.15678,188.19357
3836.77253,188.8514
3838.38829,188.8514
3840.00405,188.8514
3841.6198,187.53575
3841.6198,186.87792
3841.6198,186.2201
3841.6198,185.56228
3841.6198,188.19357
3841.6198,184.90445
3841.6198,184.24663
3843.23556,184.24663
3844.85131,175.03708
3844.85131,184.24663
3846.46707,184.24663
3846.46707,175.69491
3848.08282,184.24663
3848.08282,175.69491
3849.69858,184.24663
3849.69858,175.69491
3849.69858,176.35273
3851.31434,182.27315
3851.31434,181.61533
3851.31434,180.9575
3851.31434,180.29968
3851.31434,176.35273
3851.31434,184.24663
3851.31434,183.5888
3851.31434,182.93098
3852.93009,183.5888
3852.93009,182.93098
3852.93009,182.27315
3852.93009,181.61533
3852.93009,179.64186
3852.93009,176.35273
3854.54585,178.98403
3854.54585,180.9575
3854.54585,181.61533
3854.54585,176.35273
3856.1616,178.98403
3856.1616,179.64186
3856.1616,180.29968
3856.1616,178.32621
3856.1616,177.01056
3856.1616,177.66838
3857.77736,178.32621
3859.39311,177.66838
3861.00887,177.66838
3862.62463,177.01056
3864.24038,177.01056
3865.85614,177.01056
3867.47189,177.01056
3869.08765,177.01056
3870.7034,177.01056
3872.31916,177.01056
3873.93492,177.01056
3875.55067,177.01056
3877.16643,176.35273
3877.16643,177.01056
3878.78218,176.35273
3880.39794,176.35273
3882.0137,175.69491
3883.62945,175.69491
3885.24521,175.03708
3886.86096,175.03708
3888.47672,174.37926
3890.09247,174.37926
3891.70823,174.37926
3891.70823,173.72144
3893.32399,173.72144
3894.93974,173.72144
3896.5555,173.72144
3898.17125,174.37926
3899.78701,175.03708
3901.40276,175.03708
3903.01852,175.69491
3904.63428,176.35273
3906.25003,177.01056
3907.86579,177.01056
3909.48154,176.35273
3911.0973,176.35273
3911.0973,177.01056
3912.71306,177.66838
3912.71306,177.01056
3914.32881,177.66838
3915.94457,177.66838
3917.56032,177.66838
3919.17608,178.32621
3920.79183,178.98403
3922.40759,178.32621
3924.02335,178.32621
3925.6391,178.32621
3927.25486,178.98403
3928.87061,179.64186
3930.48637,180.29968
3932.10212,179.64186
3933.71788,178.98403
3933.71788,179.64186
3935.33364,179.64186
3936.94939,180.29968
3938.56515,179.64186
3940.1809,179.64186
3941.79666,179.64186
3943.41241,179.64186
3945.02817,180.29968
3946.64393,180.29968
3948.25968,180.29968
3949.87544,180.9575
3951.49119,181.61533
3953.10695,182.27315
3954.72271,181.61533
3956.33846,180.9575
3957.95422,180.29968
3959.56997,179.64186
3985.42207,179.64186
3985.42207,180.29968
3987.03782,180.29968
3988.65358,180.29968
3990.26933,180.29968
3991.88509,180.9575
3991.88509,180.29968
3993.50084,181.61533
3993.50084,180.9575
3993.50084,182.27315
3995.1166,182.27315
3996.73236,182.27315
3998.34811,182.27315
3999.96387,179.64186
3999.96387,181.61533
3999.96387,180.9575
3999.96387,180.29968
4001.57962,179.64186
