Raman shift,Intensity
90.6674,1451.57
92.5016,1430.14
94.3354,1421.29
96.1689,1421.43
98.0019,1421.71
99.8347,1397.43
101.667,1396.57
103.499,1396.29
105.331,1394.14
107.162,1378.71
108.993,1376.43
110.823,1359.14
112.654,1353.43
114.484,1366.86
116.313,1358
118.142,1345.14
119.971,1338.14
121.799,1327.14
123.627,1336.57
125.455,1327.43
127.283,1324.86
129.109,1312.86
130.936,1315.43
132.76,1301.57
134.586,1313.14
136.412,1302
138.237,1305.14
140.062,1293.57
141.886,1298
143.71,1286
145.532,1279
147.355,1273.71
149.179,1284.29
151.001,1273
152.824,1295.71
154.646,1282.86
156.465,1275.43
158.286,1273
160.107,1279.29
161.928,1286
163.748,1264.86
165.566,1273.86
167.385,1272.57
169.204,1269.71
171.023,1265.14
172.84,1262.71
174.658,1275.71
176.475,1271.14
178.293,1279.43
180.108,1266.43
181.924,1266.71
183.741,1281
185.554,1261.43
187.37,1258.29
189.185,1259.43
190.998,1272.29
192.813,1267.43
194.627,1268.43
196.438,1259.57
198.252,1257.86
200.065,1264.86
201.876,1263.29
203.688,1262.57
205.5,1261.29
207.31,1264.86
209.121,1268.86
210.932,1261.14
212.741,1263.71
214.551,1270.71
216.359,1276.43
218.168,1258.57
219.976,1252
221.784,1257.57
223.593,1250.29
225.399,1267.14
227.207,1254
229.012,1257.71
230.819,1261
232.624,1260.57
234.43,1268.86
236.234,1257.14
238.04,1261.71
239.843,1260.29
241.648,1274.86
243.451,1273.86
245.255,1278.57
247.057,1269.14
248.861,1271.43
250.662,1275.86
252.465,1258.14
254.265,1272.14
256.067,1276.86
257.867,1271.29
259.669,1276
261.468,1272.71
263.266,1279.29
265.067,1268.29
266.865,1282.86
268.665,1285.57
270.462,1270.29
272.259,1268.86
274.058,1267.57
275.854,1256.71
277.652,1262.57
279.448,1250.57
281.243,1253
283.04,1257.86
284.834,1255.71
286.628,1255.43
288.424,1239.86
290.218,1242
292.011,1251.71
293.806,1264
295.598,1251.86
297.39,1252.71
299.182,1254.43
300.976,1258.71
302.767,1263.43
304.557,1254.43
306.35,1260.43
308.14,1267
309.929,1275.43
311.719,1277.14
313.51,1279.71
315.298,1284.71
317.087,1287
318.875,1292.14
320.662,1286.71
322.452,1288.43
324.238,1290.86
326.025,1290.57
327.811,1296.57
329.597,1286.43
331.385,1277.86
333.17,1277.29
334.955,1285.43
336.739,1282.57
338.523,1284.43
340.307,1286.57
342.09,1271.43
343.875,1277.43
345.658,1268.43
347.441,1277.71
349.223,1280
351.004,1272.71
352.786,1271.57
354.567,1265.71
356.347,1268.29
358.128,1275.29
359.908,1265.43
361.687,1271.71
363.467,1265.86
365.248,1267.57
367.026,1267.43
368.805,1266.14
370.583,1264.57
372.36,1257.86
374.137,1273.57
375.914,1268
377.691,1262.86
379.467,1268.86
381.243,1266.29
383.018,1274.29
384.794,1275.29
386.568,1283.57
388.341,1282
390.115,1280
391.889,1272.14
393.662,1277.71
395.435,1288.29
397.208,1290.29
398.981,1287.57
400.753,1282.71
402.525,1267.43
404.296,1274.86
406.067,1270.43
407.838,1270.43
409.606,1261.71
411.376,1265.57
413.146,1274.14
414.915,1269.57
416.684,1264.86
418.453,1274.14
420.221,1253.43
421.987,1264.57
423.755,1276.14
425.522,1265.29
427.289,1271.86
429.056,1263.29
430.82,1257.14
432.586,1262.86
434.352,1269
436.117,1268.86
437.882,1260
439.645,1274.43
441.409,1263.14
443.173,1267.14
444.934,1268.14
446.698,1265.43
448.461,1254.57
450.223,1260.71
451.983,1269.57
453.745,1273
455.507,1266
457.266,1270.86
459.027,1277.71
460.787,1267.43
462.548,1279.29
464.306,1266.43
466.065,1293.57
467.822,1268.29
469.581,1278.14
471.34,1280.57
473.096,1279.71
474.854,1277.14
476.611,1271.43
478.366,1279.71
480.123,1286.29
481.877,1277.43
483.634,1276.86
485.389,1288.57
487.143,1284.71
488.898,1286.29
490.651,1287.29
492.405,1286.71
494.157,1291.43
495.911,1286.71
497.663,1283
499.416,1290.57
501.169,1283.29
502.919,1291.29
504.671,1281.71
506.421,1276.86
508.172,1277.71
509.921,1273
511.67,1276.43
513.421,1280.14
515.169,1284.43
516.918,1280.43
518.666,1281.29
520.415,1268.57
522.162,1275.86
523.91,1288.86
525.656,1265.14
527.402,1274.71
529.149,1272.57
530.894,1277.86
532.641,1273.43
534.386,1280.14
536.13,1271.57
537.875,1276
539.619,1271.43
541.364,1276.29
543.107,1258.57
544.849,1282.14
546.593,1273.29
548.335,1266.86
550.076,1284.86
551.819,1272.14
553.56,1266.57
555.301,1280.57
557.041,1279.57
558.782,1274.43
560.522,1275.57
562.261,1285.29
564.002,1262.86
565.74,1279
567.478,1268.29
569.216,1273
570.955,1274.29
572.693,1273
574.429,1267.29
576.166,1279.14
577.902,1281.86
579.64,1271.29
581.375,1273.43
583.11,1282.71
584.845,1266
586.579,1255.57
588.315,1258.14
590.049,1264.43
591.783,1265.57
593.516,1260.57
595.249,1252
596.981,1262.43
598.713,1262.71
600.447,1259.43
602.178,1252.71
603.909,1250.43
605.64,1258.43
607.371,1247.86
609.101,1259.86
610.831,1253.43
612.56,1250
614.289,1249.71
616.018,1249.29
617.747,1244.29
619.475,1258.14
621.203,1244.57
622.93,1247.86
624.657,1244.71
626.384,1249.57
628.111,1248.29
629.837,1242.29
631.563,1249.57
633.288,1250.71
635.014,1268.71
636.739,1273.86
638.463,1275.57
640.187,1266.57
641.911,1269.71
643.635,1261.57
645.358,1269.29
647.081,1264
648.804,1269.86
650.526,1275.86
652.248,1279.71
653.969,1279
655.691,1289.71
657.41,1299.57
659.13,1308.43
660.851,1307.29
662.571,1313.14
664.29,1313.86
666.01,1319.43
667.729,1325.29
669.445,1317.14
671.164,1315
672.882,1295
674.599,1286.43
676.317,1280.14
678.032,1268.86
679.748,1253.57
681.465,1253.86
683.181,1244.14
684.897,1235.86
686.61,1229.86
688.325,1238.43
690.04,1222.29
691.754,1220.43
693.467,1220.43
695.18,1207.43
696.894,1216.71
698.605,1207.57
700.318,1215.86
702.03,1209.43
703.742,1207.71
705.452,1214.29
707.164,1204.86
708.875,1208.86
710.584,1211.14
712.294,1209.14
714.005,1201.86
715.713,1201.29
717.422,1207.29
719.13,1209.29
720.838,1203.43
722.547,1207.29
724.253,1207.43
725.961,1208.86
727.667,1201.86
729.374,1208.43
731.081,1216.57
732.786,1206.14
734.492,1221.86
736.196,1217
737.902,1216
739.606,1214.14
741.311,1210.29
743.013,1212.43
744.718,1210.71
746.42,1212.86
748.124,1203.29
749.825,1212.43
751.528,1218.86
753.229,1221.86
754.932,1219.14
756.632,1212.86
758.334,1219.57
760.033,1215
761.734,1222.14
763.433,1212.43
765.134,1221.57
766.832,1220.57
768.53,1223.57
770.23,1213.14
771.927,1212.86
773.626,1212.86
775.323,1218
777.019,1214.71
778.717,1216
780.413,1213
782.108,1216
783.805,1206.29
785.5,1207.86
787.194,1214.71
788.89,1208.43
790.584,1223.14
792.278,1214.14
793.973,1216.29
795.666,1215.14
797.358,1208
799.052,1212.43
800.744,1227
802.436,1233
804.127,1221.14
805.82,1225.86
807.51,1227
809.201,1222
810.891,1219
812.58,1221.14
814.272,1235
815.961,1230.86
817.649,1230.43
819.338,1238.29
821.026,1232.43
822.716,1234.43
824.403,1245.14
826.09,1233.29
827.777,1227.43
829.463,1230.86
831.15,1224.57
832.837,1232.29
834.523,1229.57
836.208,1228.29
837.893,1228.71
839.578,1230.57
841.262,1218.14
842.946,1226.71
844.629,1205.29
846.313,1223.57
847.996,1218.43
849.678,1212.43
851.361,1211.29
853.045,1218.57
854.727,1214.29
856.408,1209.43
858.089,1221.14
859.77,1224.43
861.45,1219.29
863.13,1202.14
864.81,1207.71
866.49,1209.71
868.169,1211.86
869.846,1197.29
871.525,1213.29
873.203,1212.71
874.881,1214.57
876.558,1208.29
878.236,1207.57
879.913,1205.71
881.589,1217.86
883.266,1202
884.942,1202.71
886.618,1201.29
888.293,1209.86
889.966,1203
891.641,1201.71
893.316,1198.29
894.99,1198.57
896.664,1200.43
898.337,1189
900.01,1208.29
901.682,1199.71
903.354,1201.43
905.026,1200.43
906.698,1185.86
908.37,1199.43
910.04,1212.43
911.711,1207
913.381,1211.57
915.052,1210.71
916.72,1201
918.39,1213.71
920.059,1211.29
921.728,1210
923.395,1200.86
925.064,1208.43
926.732,1217
928.4,1221.57
930.066,1214.57
931.733,1212.71
933.4,1220.71
935.065,1216.43
936.731,1222.43
938.397,1224.57
940.061,1223.43
941.727,1218.14
943.392,1219.14
945.055,1219.71
946.719,1218.86
948.382,1216.71
950.045,1219.71
951.709,1233
953.37,1236.86
955.033,1219.14
956.694,1237.14
958.356,1229.29
960.016,1222.29
961.678,1229.57
963.338,1221.86
964.999,1235.71
966.66,1234.86
968.318,1232
969.978,1236.29
971.636,1239.43
973.296,1241.57
974.953,1243.71
976.612,1237.57
978.269,1245.43
979.925,1255.86
981.583,1255.57
983.239,1258.86
984.896,1268.57
986.552,1259.29
988.208,1278.43
989.863,1278.14
991.519,1287
993.173,1302.14
994.827,1293.43
996.482,1296.29
998.135,1305.43
999.788,1295.29
1001.44,1297.29
1003.09,1306.43
1004.75,1283.29
1006.4,1295.86
1008.05,1291.29
1009.7,1291.43
1011.35,1269.43
1013,1271.29
1014.65,1260.86
1016.31,1265.43
1017.95,1266.14
1019.6,1260.43
1021.25,1249.29
1022.9,1250.29
1024.55,1236.71
1026.2,1249.71
1027.85,1244.29
1029.5,1251.43
1031.14,1249.43
1032.79,1259.86
1034.44,1258
1036.08,1244.43
1037.73,1256.71
1039.37,1260.71
1041.02,1252.29
1042.66,1260.71
1044.31,1262.57
1045.95,1262.14
1047.6,1262.57
1049.24,1266.71
1050.88,1267.86
1052.53,1263.43
1054.17,1264.29
1055.81,1272.14
1057.46,1269.14
1059.1,1277.14
1060.74,1289.29
1062.38,1283.29
1064.02,1287.29
1065.66,1288.43
1067.3,1279.14
1068.94,1288.14
1070.58,1288.29
1072.22,1284.86
1073.86,1303.14
1075.5,1282.71
1077.14,1296
1078.77,1291.57
1080.41,1295.71
1082.05,1287.43
1083.69,1274.57
1085.32,1300.14
1086.96,1286.57
1088.6,1274.86
1090.23,1290.43
1091.87,1292.71
1093.5,1294
1095.14,1286.14
1096.77,1287.14
1098.41,1271.29
1100.04,1271.86
1101.67,1277.14
1103.31,1273.29
1104.94,1275.43
1106.57,1284.43
1108.21,1281.29
1109.84,1291.43
1111.47,1292.86
1113.1,1288.43
1114.73,1280.43
1116.36,1261.14
1117.99,1258
1119.62,1257.29
1121.25,1246.29
1122.88,1241.43
1124.51,1246.86
1126.14,1232.14
1127.77,1234.57
1129.4,1229.86
1131.03,1225.14
1132.65,1227.29
1134.28,1235
1135.91,1226.29
1137.53,1221.71
1139.16,1210.57
1140.79,1216.86
1142.41,1221.71
1144.04,1209.71
1145.66,1215.29
1147.29,1218.57
1148.91,1214
1150.54,1206
1152.16,1211.71
1153.78,1213
1155.41,1209.29
1157.03,1206
1158.65,1204.71
1160.27,1204.57
1161.89,1205
1163.52,1204.14
1165.14,1207.71
1166.76,1209.71
1168.38,1202.14
1170,1200.57
1171.62,1208.29
1173.24,1203.43
1174.86,1209
1176.48,1187.14
1178.1,1220.86
1179.72,1210.29
1181.33,1227.43
1182.95,1215.43
1184.57,1233.86
1186.19,1216.57
1187.8,1217.29
1189.42,1210.86
1191.04,1208.14
1192.65,1198.29
1194.27,1204.71
1195.88,1185.71
1197.5,1209.29
1199.11,1184.29
1200.73,1189.71
1202.34,1192.86
1203.96,1200.43
1205.57,1190.57
1207.18,1197.71
1208.8,1188.29
1210.41,1189.57
1212.02,1188
1213.63,1199.86
1215.24,1201
1216.86,1199.29
1218.47,1193.43
1220.08,1205.14
1221.69,1188
1223.3,1196.71
1224.91,1192.57
1226.52,1195.71
1228.13,1193.14
1229.73,1189.57
1231.34,1191.86
1232.95,1196.14
1234.56,1189.86
1236.17,1187.71
1237.77,1185.43
1239.38,1187.57
1240.99,1186.29
1242.59,1181.29
1244.2,1179.71
1245.81,1180.71
1247.41,1184.57
1249.02,1179.86
1250.62,1186.71
1252.23,1179.57
1253.83,1185.43
1255.43,1175.86
1257.04,1185.86
1258.64,1183.14
1260.24,1182.14
1261.85,1187.57
1263.45,1182.43
1265.05,1176.43
1266.65,1184.29
1268.25,1167.57
1269.86,1177
1271.46,1170.43
1273.06,1170.43
1274.66,1166.43
1276.26,1182.71
1277.86,1190.29
1279.46,1174.43
1281.05,1186.86
1282.65,1178.14
1284.25,1188.14
1285.85,1187.14
1287.45,1189.29
1289.04,1190.71
1290.64,1189.43
1292.24,1191.71
1293.84,1192
1295.43,1185.43
1297.03,1197
1298.62,1194.14
1300.22,1192.71
1301.81,1191.14
1303.41,1188.29
1305,1190.57
1306.6,1188.86
1308.19,1200
1309.78,1195.57
1311.38,1176.86
1312.97,1191.29
1314.56,1182.29
1316.15,1178.43
1317.75,1184.86
1319.34,1178.14
1320.93,1184.14
1322.52,1182.57
1324.11,1182.71
1325.7,1173.14
1327.29,1185.71
1328.88,1173.57
1330.47,1168.14
1332.06,1174.14
1333.65,1176.57
1335.24,1175.14
1336.83,1173.29
1338.41,1173.71
1340,1178.43
1341.59,1167.86
1343.17,1175.71
1344.76,1176.86
1346.35,1158.71
1347.93,1173.43
1349.52,1159.29
1351.11,1171.43
1352.69,1175.29
1354.28,1161.57
1355.86,1164.86
1357.44,1168.57
1359.03,1161.71
1360.61,1165.43
1362.2,1168
1363.78,1164.86
1365.36,1164.57
1366.94,1165.86
1368.53,1154.57
1370.11,1164.43
1371.69,1165.86
1373.27,1168
1374.85,1167.14
1376.43,1175.29
1378.01,1173.86
1379.59,1162.29
1381.17,1172.29
1382.75,1175.14
1384.33,1166.57
1385.91,1159.14
1387.49,1170
1389.07,1170.86
1390.65,1171.57
1392.22,1167.57
1393.8,1168.71
1395.38,1168.86
1396.95,1169.86
1398.53,1173.29
1400.11,1164.43
1401.68,1169.57
1403.26,1162.29
1404.83,1175.29
1406.41,1181.57
1407.98,1174.57
1409.56,1177.86
1411.13,1168.71
1412.7,1180.86
1414.28,1181.43
1415.85,1175.57
1417.42,1171
1419,1174.71
1420.57,1167.29
1422.14,1175.43
1423.71,1180.71
1425.28,1170.14
1426.85,1172.71
1428.42,1174.43
1429.99,1172.43
1431.57,1181
1433.14,1172.57
1434.7,1174.29
1436.27,1180.43
1437.84,1180.57
1439.41,1178.86
1440.98,1181.71
1442.55,1184
1444.12,1188.43
1445.68,1182.29
1447.25,1178
1448.82,1176.29
1450.38,1171.29
1451.95,1179.86
1453.52,1191.43
1455.08,1182.86
1456.65,1184.57
1458.21,1178.57
1459.78,1184
1461.34,1173.71
1462.91,1180.71
1464.47,1178.29
1466.03,1180.57
1467.6,1177.43
1469.16,1179.86
1470.72,1171.43
1472.28,1169.14
1473.85,1166.71
1475.41,1168.14
1476.97,1172.43
1478.53,1172.43
1480.09,1170.57
1481.65,1162.71
1483.21,1169.14
1484.77,1170.43
1486.33,1164.29
1487.89,1156.57
1489.45,1165.43
1491.01,1161.86
1492.57,1169.57
1494.13,1163
1495.68,1150.57
1497.24,1156.43
1498.8,1157.86
1500.35,1162.14
1501.91,1166.43
1503.47,1158.29
1505.03,1177.71
1506.58,1167.14
1508.14,1166.14
1509.69,1162.14
1511.25,1162.57
1512.8,1166.14
1514.35,1173.14
1515.91,1173.57
1517.46,1166.14
1519.02,1168
1520.57,1165.14
1522.12,1162.43
1523.67,1166.14
1525.23,1165.43
1526.78,1169.43
1528.33,1168.71
1529.88,1172.14
1531.43,1168.14
1532.98,1171.86
1534.53,1171.86
1536.09,1172.14
1537.63,1171.86
1539.18,1166.43
1540.73,1169.57
1542.28,1167
1543.83,1170.43
1545.38,1166.57
1546.93,1171.71
1548.47,1165.29
1550.02,1171.57
1551.57,1172.43
1553.12,1167
1554.67,1166.86
1556.21,1179.14
1557.76,1171.57
1559.3,1170.43
1560.85,1164
1562.39,1171.43
1563.94,1178.14
1565.48,1157.14
1567.03,1157.29
1568.57,1166.57
1570.11,1169.14
1571.66,1174.71
1573.2,1171.71
1574.75,1168.43
1576.29,1165.43
1577.83,1170
1579.37,1173.57
1580.91,1182
1582.46,1168.57
1584,1176.29
1585.54,1168.86
1587.08,1175.29
1588.62,1168.14
1590.16,1171.86
1591.7,1166.86
1593.24,1170.14
1594.78,1171.43
1596.32,1176.43
1597.85,1182.57
1599.39,1179.14
1600.93,1183.29
1602.47,1189.14
1604,1200
1605.54,1199.43
1607.08,1208.29
1608.62,1205.57
1610.15,1216.71
1611.69,1205.14
1613.22,1192.29
1614.76,1177.14
1616.29,1188.14
1617.83,1176.29
1619.36,1173.29
1620.9,1175.29
1622.43,1174
1623.96,1173.86
1625.5,1164.57
1627.03,1160.71
1628.56,1167
1630.1,1163.29
1631.63,1168.86
1633.16,1158.86
1634.69,1170.43
1636.22,1173.71
1637.75,1164.43
1639.28,1172.43
1640.81,1167.71
1642.34,1169.86
1643.87,1178.57
1645.4,1169.29
1646.93,1170
1648.46,1175.43
1649.99,1172.29
1651.52,1173.57
1653.05,1168.71
1654.57,1167
1656.1,1169.86
1657.63,1172
1659.16,1173.71
1660.68,1171.86
1662.21,1168.86
1663.74,1166.29
1665.26,1167.57
1666.79,1169
1668.31,1167.71
1669.84,1170
1671.36,1164.86
1672.89,1170.29
1674.41,1168
1675.93,1167
1677.46,1171.43
1678.98,1169.57
1680.5,1172.43
1682.03,1176.14
1683.55,1163.43
1685.07,1165.57
1686.59,1159.71
1688.11,1160
1689.63,1160
1691.15,1162.86
1692.67,1156.71
1694.2,1154.86
1695.72,1171.29
1697.23,1154.29
1698.75,1158.57
1700.27,1158.29
1701.79,1163.86
1703.31,1173.71
1704.83,1161.29
1706.35,1170.57
1707.87,1167.29
1709.38,1152.29
1710.9,1167.57
1712.42,1165.29
1713.93,1153.43
1715.45,1160.57
1716.97,1156.29
1718.48,1160.14
1720,1160.29
1721.51,1162.57
1723.03,1153.71
1724.54,1158.86
1726.06,1161.43
1727.57,1156
1729.08,1151
1730.6,1155.14
1732.11,1158.71
1733.62,1165.43
1735.14,1158.43
1736.65,1160.14
1738.16,1161.86
1739.67,1151.86
1741.18,1157.71
1742.69,1154
1744.21,1158.14
1745.72,1157
1747.23,1162.71
1748.74,1157
1750.25,1163
1751.76,1165.57
1753.27,1163.43
1754.78,1166.71
1756.28,1157.57
1757.79,1155
1759.3,1162.43
1760.81,1167
1762.31,1164.14
1763.82,1159
1765.33,1161.29
1766.84,1169.14
1768.34,1165
1769.85,1169.29
1771.35,1167
1772.86,1165.57
1774.37,1170.29
1775.87,1161.71
1777.37,1166.14
1778.88,1166.57
1780.38,1172
1781.89,1161.71
1783.39,1164.86
1784.89,1165.86
1786.4,1168.71
1787.9,1166.43
1789.4,1163.86
