Wavenumber (cm⁻¹),Intensity
200.0,-15.149999999999999
201.00097751710655,-10.735689149560123
202.0019550342131,-6.321378299120244
203.00293255131965,-1.9070674486803654
204.0039100684262,2.5072434017595135
205.00488758553274,6.9215542521993925
206.0058651026393,11.335865102639271
207.00684261974584,15.75017595307915
208.0078201368524,20.16448680351903
209.00879765395894,24.578797653958908
210.00977517106548,28.992003910068387
211.01075268817203,33.29313978494619
212.01173020527858,37.51724926686219
213.01270772238513,35.711345063538666
214.01368523949168,31.201906158357797
215.01466275659823,29.024627565982414
216.01564027370478,28.41664320625615
217.01661779081132,25.548489736070394
218.01759530791787,24.730788856305
219.01857282502445,23.600148582600124
220.019550342131,17.432035190615753
221.02052785923755,9.723263929618726
222.0215053763441,5.493193548387079
223.02248289345064,3.436350928641229
224.0234604105572,0.6927888563049925
225.02443792766374,1.7272570869990338
226.0254154447703,3.50719061583578
227.02639296187684,3.9820674486803465
228.02737047898339,2.7916236559139724
229.02834799608993,1.013187683284455
230.02932551319648,0.2317214076246355
231.03030303030303,1.350848484848484
232.03128054740958,0.42816617790811334
233.03225806451613,1.7721612903225796
234.03323558162268,2.8977233626588474
235.03421309872923,2.2992287390029356
236.03519061583577,1.2775513196480894
237.03616813294232,2.519977517106547
238.03714565004887,3.1158484848484798
239.03812316715542,4.113431085043981
240.03910068426197,5.212035190615831
241.04007820136852,5.876792766373416
242.04105571847506,5.266208211143701
243.0420332355816,4.528127077223855
244.0430107526882,4.061440860215039
245.04398826979474,3.2111818181818044
246.0449657869013,2.3587497556207047
247.04594330400784,1.2140830889540453
248.04692082111438,0.4925659824046931
249.04789833822093,0.5975708699902338
250.04887585532748,1.2641593352883724
251.04985337243403,1.661178885630504
252.05083088954058,2.1088347996089905
253.05180840664713,1.8080830889540465
254.05278592375367,0.7922844574780041
255.05376344086022,0.7064516129032415
256.05474095796677,2.697638318670592
257.0557184750733,4.781152492668627
258.05669599217987,5.687905180840667
259.0576735092864,6.119983382209193
260.05865102639297,7.054407624633438
261.0596285434995,8.801674486803524
262.06060606060606,10.781060606060608
263.0615835777126,12.31552492668622
264.06256109481916,14.100518084066472
265.0635386119257,16.477593352883673
266.06451612903226,19.348645161290317
267.0654936461388,22.365319648093834
268.06647116324535,25.364932551319637
269.0674486803519,28.693709677419346
270.06842619745845,30.810790811339185
271.069403714565,33.12591593352882
272.07038123167155,35.54326099706743
273.0713587487781,38.088041055718456
274.07233626588464,40.473016617790805
275.0733137829912,41.61947800586509
276.07429130009774,43.19322189638316
277.0752688172043,46.134225806451575
278.07624633431084,49.52776246334308
279.0772238514174,52.21484555229714
280.07820136852393,54.279064516129
281.0791788856305,56.529310850439856
282.08015640273703,58.469191593352846
283.0811339198436,60.5761065493646
284.08211143695013,61.04511143695014
285.0830889540567,61.20206353861196
286.0840664711632,59.39119354838717
287.0850439882698,55.56038709677427
288.0860215053764,51.63746236559122
289.0869990224829,46.64314271749739
290.0879765395895,41.90242521994122
291.088954056696,38.14107429129999
292.0899315738026,34.775338220918734
293.0909090909091,30.61936363636348
294.09188660801567,25.63048973607024
295.0928641251222,21.047598240469114
296.09384164222877,17.69538709677409
297.0948191593353,14.082900293255037
298.09579667644186,10.568573802541453
299.0967741935484,7.144032258064445
300.09775171065496,4.462941348973561
301.0987292277615,2.624373411534659
302.09970674486806,0.9496832844574636
303.1006842619746,0.5316832844575098
304.10166177908116,1.772864125122179
305.1026392961877,1.2242111436949954
306.10361681329425,0.3571730205278553
307.1045943304008,0.24843792766374678
308.10557184750735,0.9459354838709821
309.1065493646139,1.6340439882697884
310.10752688172045,1.2858817204301056
311.108504398827,1.0555835777125933
312.10948191593354,0.19715151515153306
313.1104594330401,1.4565806451613055
314.11143695014664,2.6060234604105705
315.1124144672532,3.678486803519072
316.11339198435974,4.540539589442822
317.1143695014663,5.1864633431085085
318.11534701857283,5.606713587487786
319.1163245356794,5.996808406647116
320.11730205278593,5.9019032258064525
321.1182795698925,6.059440860215057
322.119257086999,6.571178885630501
323.1202346041056,7.179425219941354
324.1212121212121,8.391636363636366
325.1221896383187,8.789624633431083
326.1231671554252,7.966375366568912
327.12414467253177,6.891575757575758
328.1251221896383,7.582500488758552
329.12609970674487,9.55090029325513
330.1270772238514,10.625248289345066
331.12805474095796,9.525462365591402
332.1290322580645,8.504516129032258
333.13000977517106,8.699122189638318
334.1309872922776,8.875137829912024
335.13196480938416,8.692067448680355
336.1329423264907,8.243731182795702
337.13391984359725,7.7340224828934545
338.1348973607038,7.200536656891501
339.13587487781035,6.834417399804488
340.1368523949169,7.675199413489726
341.13782991202345,8.454419354838715
342.13880742913,7.9487908113392125
343.13978494623655,6.821107526881731
344.1407624633431,6.141850439882699
345.14173998044964,6.08203128054741
346.1427174975562,5.98678396871946
347.14369501466274,5.486002932551329
348.1446725317693,5.02857575757576
349.14565004887584,4.901826001955033
350.1466275659824,4.946117302052785
351.14760508308893,5.017694037145648
352.1485826001955,5.074804496578692
353.14956011730203,4.665530791788904
354.1505376344086,2.5491182795699414
355.1515151515151,0.801454545454539
356.1524926686217,1.1890322580644899
357.1534701857282,2.142011730205269
358.1544477028348,2.3659335288367713
359.1554252199413,1.7671055718475204
360.15640273704787,1.5530527859237204
361.1573802541544,2.6923802541544184
362.15835777126097,3.4933519061583658
363.1593352883675,3.208425219941361
364.16031280547406,2.8253870967742034
365.1612903225806,2.469064516129054
366.16226783968716,1.8317038123167326
367.1632453567937,1.4774613880742773
368.16422287390026,1.8694926686216886
369.1652003910068,2.0653137829912227
370.16617790811335,1.4906608015640526
371.1671554252199,0.8111466275660102
372.16813294232645,0.26935972629519606
373.169110459433,0.6331075268817049
374.17008797653955,0.9016334310850563
375.1710654936461,0.6202082111437026
376.1720430107527,0.4493225806451595
377.17302052785925,0.3311583577712599
378.1739980449658,0.32346334310850855
379.17497556207235,0.6912873900293314
380.1759530791789,0.9982316715542451
381.17693059628544,0.6286617790811441
382.177908113392,1.7718680351906293
383.17888563049854,3.0665073313783
384.1798631476051,3.2022023460410565
385.18084066471164,3.3255415444770287
386.1818181818182,3.4153636363636366
387.18279569892474,3.695064516129038
388.1837732160313,5.057500488758559
389.18475073313783,6.772536656891499
390.1857282502444,8.38755327468231
391.18670576735093,10.176206256109483
392.1876832844575,11.834513196480938
393.188660801564,12.61151221896383
394.1896383186706,13.474313782991201
395.1906158357771,14.272384164222872
396.1915933528837,15.046088954056692
397.1925708699902,16.142558162267832
398.19354838709677,17.5302258064516
399.1945259042033,20.077259042033205
400.19550342130987,24.978959921798594
401.1964809384164,28.925384164222873
402.19745845552296,28.66799608993158
403.1984359726295,28.599170087976518
404.19941348973606,31.13690615835773
405.2003910068426,34.763366568914925
406.20136852394916,36.67838123167156
407.2023460410557,36.38179472140763
408.20332355816225,36.055632453567945
409.20430107526886,35.478376344086
410.2052785923754,34.40518181818169
411.20625610948196,31.04437634408587
412.2072336265885,27.43654447702825
413.20821114369505,25.098838709677366
414.2091886608016,23.54763245356786
415.21016617790815,21.078351906158215
416.2111436950147,17.164404692081973
417.21212121212125,13.767878787878743
418.2130987292278,12.459806451612863
419.21407624633434,11.112806451612844
420.2150537634409,9.247473118279505
421.21603128054744,7.171351906158295
422.217008797654,5.126642228738943
423.21798631476054,3.204069403714519
424.2189638318671,2.14631769305965
425.21994134897363,2.913052785923776
426.2209188660802,3.039735092864065
427.22189638318673,1.302621700879769
428.2228739002933,1.5310205278592508
429.2238514173998,1.7788435972629337
430.2248289345064,0.9982844574779879
431.2258064516129,0.39216129032258096
432.2267839687195,0.5903235581622853
433.227761485826,1.5881798631476371
434.22873900293257,3.1561994134897655
435.2297165200391,4.928749755620771
436.23069403714567,7.557328445747849
437.2316715542522,9.891568914956025
438.23264907135876,10.337166177908102
439.2336265884653,9.727938416422283
440.23460410557186,9.74084164222875
441.2355816226784,10.450055718475081
442.23655913978496,11.315043010752708
443.2375366568915,12.879577712609983
444.23851417399806,13.694533724340175
445.2394916911046,13.59845845552297
446.24046920821115,13.785375366568925
447.2414467253177,14.944391984359735
448.24242424242425,15.891606060606062
449.2434017595308,15.829604105571844
450.24437927663735,15.195754643206254
451.2453567937439,14.468216031280544
452.24633431085044,13.348466275659817
453.247311827957,11.43287096774193
454.24828934506354,8.956272727272722
455.2492668621701,6.404087976539588
456.25024437927664,4.831802541544477
457.2512218963832,3.9943734115347027
458.25219941348973,3.1705865102639303
459.2531769305963,2.5739775171065515
460.25415444770283,1.6023098729227818
461.2551319648094,0.6940850439882661
462.2561094819159,1.1420420332355847
463.2570869990225,0.6708680351906171
464.258064516129,0.567806451612902
465.2590420332356,0.5792023460410591
466.2600195503421,0.31948387096774017
467.26099706744867,0.9042140762463176
468.2619745845552,2.777144672531743
469.26295210166177,5.359478005865067
470.2639296187683,8.32204105571844
471.26490713587486,11.781022482893377
472.2658846529814,17.569972629520922
473.26686217008796,24.030563049853278
474.2678396871945,30.303141739980347
475.26881720430106,36.785935483870844
476.2697947214076,44.57250439882681
477.27077223851416,53.72134017595291
478.2717497556207,61.14362756598233
479.27272727272725,65.14445454545445
480.2737047898338,68.4679110459433
481.27468230694035,68.40006451612905
482.2756598240469,66.47543695014673
483.27663734115345,61.473660801564186
484.27761485826,54.42937927663755
485.27859237536654,45.248093841642536
486.2795698924731,33.49468817204331
487.28054740957964,23.03119941348996
488.2815249266862,15.01092961876855
489.2825024437928,7.769388074291139
490.28347996089934,3.009562072336217
491.2844574780059,2.380920821114432
492.28543499511244,4.267583577712622
493.286412512219,3.6983685239490947
494.28739002932554,3.2868709677420815
495.2883675464321,11.005471163245598
496.28934506353863,24.453721407625046
497.2903225806452,44.15729032258105
498.29130009775173,66.18193352883728
499.2922776148583,93.43851026393014
500.2932551319648,122.3466510263935
501.2942326490714,153.75380156402792
502.2952101661779,186.41386412512273
503.2961876832845,219.3431495601178
504.297165200391,251.89803519061627
505.29814271749757,280.7749980449661
506.2991202346041,304.04117595307946
507.30009775171067,322.0686461388075
508.3010752688172,327.68700000000007
509.30205278592376,329.0543460410556
510.3030303030303,319.15503030303023
511.30400782013686,304.69949071358735
512.3049853372434,285.2405659824058
513.3059628543499,262.0874242424255
514.3069403714564,236.31880058651174
515.307917888563,207.72128152492814
516.3088954056695,179.87067350928785
517.3098729227761,152.78718279570037
518.3108504398826,127.74701466275778
519.3118279569892,106.51589247311945
520.3128054740957,87.16718475073408
521.3137829912023,71.6223313782999
522.3147605083088,58.56480058651095
523.3157380254154,47.175920821115014
524.3167155425219,36.50221994134961
525.3176930596285,26.740566959922297
526.318670576735,18.47811339198489
527.3196480938416,11.29720234604133
528.3206256109481,6.875915933529132
529.3216031280547,2.964112414467411
530.3225806451612,1.1273870967742328
531.3235581622678,1.0689423264906426
532.3245356793743,1.906130987292253
533.3255131964809,2.1633929618768306
534.3264907135874,1.9339696969697506
535.327468230694,1.2967311827957237
536.3284457478005,1.1943343108504108
537.3294232649071,1.738468230693978
538.3304007820136,1.5872111436951695
539.3313782991202,0.7031818181816989
540.3323558162267,2.635154447702642
541.3333333333333,5.218999999999802
542.3343108504398,7.797797653958751
543.3352883675464,10.293097751710466
544.3362658846529,12.826634408601938
545.3372434017595,15.874765395894137
546.338220918866,19.3863958944279
547.3391984359725,22.79014271749724
548.3401759530791,26.45230498533698
549.3411534701856,29.90695698924699
550.3421309872922,33.81994232649039
551.3431085043987,37.18278592375347
552.3440860215054,39.120365591397885
553.345063538612,40.594788856305044
554.3460410557185,43.442120234604225
555.347018572825,47.80136265884664
556.3479960899316,51.761522971652084
557.3489736070381,55.21926979472149
558.3499511241447,59.39195210166189
559.3509286412512,64.51804007820148
560.3519061583578,68.63472434017599
561.3528836754643,70.64095210166182
562.3538611925709,71.86075464320625
563.3548387096774,71.63419354838707
564.355816226784,70.18257282502438
565.3567937438905,66.73357184750725
566.3577712609971,61.84880938416414
567.3587487781036,56.2329990224828
568.3597262952102,49.887364613880656
569.3607038123167,43.48281524926678
570.3616813294233,36.95385728250236
571.3626588465298,30.859442815249206
572.3636363636364,25.41763636363631
573.3646138807429,20.31539002932547
574.3655913978495,16.001913978494592
575.366568914956,13.014659824046909
576.3675464320626,11.723922776148578
577.3685239491691,10.735530791788849
578.3695014662757,8.791912023460398
579.3704789833822,6.118754643206246
580.3714565004888,3.672967741935477
581.3724340175953,1.5062463343108452
582.3734115347019,0.5417595307917904
583.3743890518084,1.604680351906159
584.375366568915,1.942134897360704
585.3763440860215,0.9120430107526896
586.377321603128,0.2959941348973604
587.3782991202346,0.37835483870967757
588.3792766373411,0.26755913978494705
589.3802541544477,0.6230488758553213
590.3812316715542,1.7845014662756544
591.3822091886608,1.963240469208218
592.3831867057673,0.9189159335288443
593.3841642228739,0.6167712609970604
594.3851417399804,1.702077223851404
595.386119257087,2.6755210166177887
596.3870967741935,2.7792903225806453
597.3880742913001,2.7311632453567944
598.3890518084066,2.680717497556208
599.3900293255132,2.8396832844574718
600.3910068426197,3.275139784946231
601.3919843597263,3.631187683284453
602.3929618768328,3.8933108504398786
603.3939393939394,4.232030303030294
604.3949169110459,4.953140762463324
605.3958944281525,5.783527859237528
606.396871945259,5.4414672531769614
607.3978494623656,4.015236559139811
608.3988269794721,2.771287390029353
609.3998044965787,1.6115943304008042
610.4007820136852,1.206173020527848
611.4017595307918,1.984958944281495
612.4027370478983,2.6577839687194564
613.4037145650049,1.9069266862170515
614.4046920821114,0.5689912023460653
615.405669599218,0.23337243401758168
616.4066471163245,0.6821857282502333
617.4076246334312,0.7385366568914596
618.4086021505377,0.2994946236558762
619.4095796676443,0.3803714565005589
620.4105571847508,1.240363636363707
621.4115347018574,1.7989149560117395
622.4125122189639,1.8466119257086961
623.4134897360705,1.6784134897360437
624.414467253177,1.2564310850439466
625.4154447702836,0.8722052785923624
626.4164222873901,0.9101700879765644
627.4173998044967,1.2462551319648356
628.4183773216032,1.5862277614858504
629.4193548387098,1.8499677419354965
630.4203323558163,1.7383118279569527
631.4213098729228,1.3295610948191399
632.4222873900294,1.0848533724340033
633.423264907136,0.8628768328445576
634.4242424242425,0.9072424242424544
635.425219941349,1.4644574780059136
636.4261974584556,1.9241603128054816
637.4271749755621,1.9112541544476909
638.4281524926687,1.7269354838709556
639.4291300097752,1.532457478005852
640.4301075268818,1.3192258064515985
641.4310850439883,1.0909882697947069
642.4320625610949,1.0039345063538676
643.4330400782014,1.574420332355888
644.434017595308,2.7240234604106237
645.4349951124145,3.271265884652971
646.4359726295211,3.289764418377338
647.4369501466276,3.309234604105554
648.4379276637342,2.8641124144672188
649.4389051808407,2.687539589442837
650.4398826979473,3.2197155425220334
651.4408602150538,3.683397849462373
652.4418377321604,3.6552844574779932
653.4428152492669,3.508387096774192
654.4437927663735,3.5831964809384274
655.44477028348,3.531876832844556
656.4457478005866,2.5767096774192724
657.4467253176931,1.0692570869989595
658.4477028347997,0.6356344086021808
659.4486803519062,1.3702756598240868
660.4496578690128,1.278377321603071
661.4506353861193,0.6266001955034248
662.4516129032259,0.5227741935483727
663.4525904203324,0.27203812316714854
664.453567937439,0.263013685239499
665.4545454545455,0.37290909090909236
666.455522971652,0.5282013685239613
667.4565004887586,0.9110332355816417
668.4574780058651,1.3889296187683466
669.4584555229717,1.8572649071358924
670.4594330400782,2.1842658846529877
671.4604105571848,2.049319648093824
672.4613880742913,1.5211632453567736
673.4623655913979,0.7496344086021163
674.4633431085044,0.43255131964810967
675.464320625611,0.6726774193548376
676.4652981427175,1.2659364613881157
677.4662756598241,1.9773255131964815
678.4672531769306,2.029118279569895
679.4682306940372,1.899008797653948
680.4692082111437,1.4385278592375212
681.4701857282503,1.0312150537634344
682.4711632453568,0.8780283479960885
683.4721407624634,1.2669002932551543
684.4731182795699,2.6016451612903673
685.4740957966765,3.9558621700879955
686.475073313783,3.9279794721407404
687.4760508308896,3.1273724340175817
688.4770283479961,3.02524926686218
689.4780058651027,3.452120234604113
690.4789833822092,3.312837732160299
691.4799608993158,2.738136852394909
692.4809384164223,2.534680351906159
693.4819159335289,2.5979628543499524
694.4828934506354,2.5034095796676397
695.483870967742,2.190967741935479
696.4848484848485,2.190060606060611
697.485826001955,2.68495698924732
698.4868035190616,3.0568123167155434
699.4877810361681,2.9727624633431056
700.4887585532747,2.8237810361681324
701.4897360703812,2.9481260997067475
702.4907135874878,3.312311827956993
703.4916911045943,3.9107683284457533
704.4926686217009,4.455073313782993
705.4936461388074,4.080482893450629
706.494623655914,3.039268817204296
707.4956011730205,2.2580381231671534
708.4965786901271,1.6923919843597246
709.4975562072336,1.3786735092864122
710.4985337243402,1.3155806451612904
711.4995112414467,1.0612218963831865
712.5004887585533,0.5867585532746825
713.5014662756598,0.4573431085043985
714.5024437927664,0.8322561094819148
715.5034213098729,0.8755562072336279
716.5043988269795,0.4662580645161306
717.505376344086,0.22906451612903267
718.5063538611926,0.5414222873900253
719.5073313782991,1.02806744868035
720.5083088954057,0.7125718475073382
721.5092864125122,0.2139227761485836
722.5102639296188,0.385598240469204
723.5112414467253,0.9480430107526814
724.5122189638319,1.2908543499511238
725.5131964809384,1.3008944281524928
726.514173998045,1.3576725317693044
727.5151515151515,1.541212121212118
728.516129032258,1.4163870967742005
729.5171065493646,0.922724340175961
730.5180840664711,0.8273167155425172
731.5190615835777,1.1828533724340105
732.5200391006842,1.1885855327468298
733.5210166177908,0.6999530791788969
734.5219941348973,0.4307038123167149
735.5229716520039,0.6232873900293184
736.5239491691104,0.679686217008802
737.524926686217,0.32836070381232774
738.5259042033235,0.11698435972629431
739.5268817204301,0.3710430107526772
740.5278592375366,0.693322580645156
741.5288367546432,0.4783998044965943
742.5298142717497,0.15714467253177145
