Raman shift,Intensity
431.03944,593.5368
433.25168,592.75589
435.46391,592.75589
437.67615,592.75589
439.88838,592.75589
442.10062,592.75589
444.31285,592.75589
446.52509,592.75589
448.73732,591.97498
450.94956,591.97498
453.1618,591.97498
455.37403,591.97498
457.58627,591.97498
459.7985,591.97498
462.01074,591.19406
464.22297,591.97498
466.43521,591.97498
468.64745,591.97498
470.85968,591.97498
473.07192,591.97498
475.28415,592.75589
477.49639,592.75589
479.70862,592.75589
481.92086,593.5368
484.1331,593.5368
486.34533,594.31771
488.55757,594.31771
490.7698,595.09863
492.98204,595.09863
495.19427,595.87954
497.40651,595.87954
499.61874,595.87954
501.83098,595.87954
504.04322,595.87954
506.25545,595.87954
508.46769,595.87954
510.67992,595.87954
512.89216,595.87954
515.10439,595.09863
517.31663,595.09863
519.52887,595.09863
521.7411,594.31771
523.95334,594.31771
526.16557,593.5368
528.37781,593.5368
530.59004,593.5368
532.80228,592.75589
535.01451,592.75589
537.22675,592.75589
539.43899,591.97498
541.65122,591.97498
543.86346,591.97498
546.07569,591.19406
548.28793,591.19406
550.50016,591.19406
552.7124,591.19406
554.92464,591.19406
557.13687,591.97498
559.34911,591.97498
561.56134,591.97498
563.77358,591.97498
565.98581,591.97498
568.19805,591.97498
570.41029,591.97498
572.62252,591.97498
574.83476,591.97498
577.04699,592.75589
579.25923,592.75589
581.47146,592.75589
583.6837,592.75589
585.89593,592.75589
588.10817,593.5368
590.32041,593.5368
592.53264,593.5368
594.74488,593.5368
596.95711,594.31771
599.16935,594.31771
601.38158,595.09863
603.59382,595.09863
605.80606,595.87954
608.01829,595.87954
640.02972,601.01932
682.49128,601.01932
712.0857,593.29886
762.87479,592.75589
765.08702,591.97498
767.29926,591.19406
769.51149,590.41315
771.72373,589.63224
773.93596,589.63224
776.1482,589.63224
778.36044,589.63224
780.57267,589.63224
782.78491,588.85132
784.99714,588.07041
787.20938,587.2895
789.42161,586.50859
791.63385,586.50859
793.84609,585.72767
796.05832,585.72767
798.27056,585.72767
800.48279,585.72767
802.69503,585.72767
804.90726,585.72767
807.1195,585.72767
809.33173,585.72767
811.54397,585.72767
813.75621,585.72767
815.96844,585.72767
818.18068,585.72767
820.39291,585.72767
822.60515,585.72767
824.81738,585.72767
827.02962,586.50859
829.24186,587.2895
831.45409,587.2895
833.66633,587.2895
835.87856,587.2895
838.0908,587.2895
840.30303,587.2895
842.51527,587.2895
844.72751,587.2895
846.93974,587.2895
849.15198,587.2895
851.36421,587.2895
853.57645,587.2895
855.78868,587.2895
858.00092,587.2895
860.21315,587.2895
862.42539,588.07041
864.63763,588.85132
866.84986,589.63224
869.0621,590.41315
871.27433,591.19406
873.48657,591.19406
875.6988,591.97498
877.91104,591.97498
880.12328,591.19406
882.33551,590.41315
884.54775,589.63224
886.75998,588.85132
888.97222,588.07041
891.18445,587.2895
893.39669,586.50859
895.60892,586.50859
897.82116,586.50859
900.0334,586.50859
902.24563,586.50859
904.45787,586.50859
906.6701,586.50859
908.88234,586.50859
911.09457,587.2895
913.30681,588.07041
915.51905,588.07041
917.73128,588.07041
919.94352,588.07041
922.15575,588.07041
924.36799,588.85132
926.58022,589.63224
928.79246,590.41315
931.0047,591.19406
933.21693,591.19406
935.42917,591.19406
937.6414,591.19406
939.85364,590.41315
942.06587,589.63224
944.27811,588.85132
946.49034,588.07041
948.70258,587.2895
950.91482,587.2895
953.12705,588.07041
955.33929,588.07041
957.55152,588.85132
959.76376,588.07041
961.97599,588.85132
964.18823,588.85132
966.40047,588.85132
968.6127,590.41315
968.6127,591.19406
968.6127,589.63224
970.82494,591.97498
970.82494,591.19406
973.03717,606.81232
973.03717,591.97498
975.24941,612.27871
975.24941,592.75589
975.24941,609.93597
975.24941,609.15506
975.24941,607.59323
975.24941,610.71688
975.24941,606.03141
975.24941,602.90775
975.24941,602.12684
975.24941,613.05962
975.24941,591.97498
977.46164,601.34593
977.46164,619.30692
977.46164,617.7451
977.46164,603.68867
977.46164,616.18327
977.46164,605.25049
977.46164,615.40236
977.46164,614.62145
977.46164,613.84053
977.46164,608.37414
977.46164,592.75589
977.46164,594.31771
977.46164,593.5368
977.46164,611.4978
977.46164,618.52601
979.67388,595.87954
979.67388,595.09863
979.67388,596.66045
979.67388,597.44137
979.67388,624.77331
979.67388,616.96419
979.67388,599.00319
979.67388,600.56502
979.67388,604.46958
979.67388,620.08784
979.67388,620.86875
979.67388,621.64966
979.67388,622.43057
979.67388,623.21149
979.67388,626.33514
979.67388,625.55423
979.67388,627.11605
979.67388,598.22228
981.88611,634.14427
981.88611,627.89696
981.88611,623.9924
981.88611,629.45879
981.88611,599.00319
981.88611,598.22228
981.88611,597.44137
981.88611,596.66045
981.88611,595.87954
981.88611,599.7841
981.88611,621.64966
981.88611,624.77331
981.88611,622.43057
981.88611,626.33514
981.88611,620.86875
981.88611,630.2397
981.88611,631.02062
981.88611,632.58244
981.88611,633.36335
981.88611,634.92518
981.88611,625.55423
981.88611,628.67788
984.09835,641.17248
984.09835,640.39157
984.09835,634.14427
984.09835,635.70609
984.09835,636.487
984.09835,620.08784
984.09835,637.26792
984.09835,638.04883
984.09835,631.80153
984.09835,630.2397
984.09835,632.58244
984.09835,599.7841
984.09835,600.56502
984.09835,601.34593
984.09835,627.11605
984.09835,633.36335
984.09835,627.89696
984.09835,629.45879
984.09835,613.84053
984.09835,628.67788
984.09835,623.9924
984.09835,639.61066
984.09835,623.21149
986.31059,644.29613
986.31059,606.03141
986.31059,647.41978
986.31059,643.51522
986.31059,642.73431
986.31059,648.2007
986.31059,646.63887
986.31059,638.82974
986.31059,619.30692
986.31059,618.52601
986.31059,614.62145
986.31059,613.05962
986.31059,606.81232
986.31059,631.02062
986.31059,631.80153
986.31059,602.90775
986.31059,602.12684
986.31059,641.95339
986.31059,637.26792
986.31059,635.70609
986.31059,636.487
986.31059,603.68867
986.31059,639.61066
986.31059,638.04883
986.31059,640.39157
986.31059,634.92518
988.52282,617.7451
988.52282,615.40236
988.52282,647.41978
988.52282,646.63887
988.52282,656.79074
988.52282,656.00982
988.52282,644.29613
988.52282,643.51522
988.52282,642.73431
988.52282,641.95339
988.52282,641.17248
988.52282,655.22891
988.52282,654.448
988.52282,638.82974
988.52282,653.66709
988.52282,609.15506
988.52282,652.10526
988.52282,651.32435
988.52282,650.54344
988.52282,649.76252
988.52282,648.98161
988.52282,645.85796
988.52282,604.46958
988.52282,608.37414
988.52282,645.07705
988.52282,607.59323
988.52282,605.25049
988.52282,612.27871
990.73506,651.32435
990.73506,616.18327
990.73506,652.10526
990.73506,648.98161
990.73506,650.54344
990.73506,645.07705
990.73506,645.85796
990.73506,657.57165
990.73506,658.35256
990.73506,659.13348
990.73506,616.96419
990.73506,649.76252
990.73506,648.2007
990.73506,660.6953
990.73506,663.03804
990.73506,662.25713
990.73506,659.91439
990.73506,652.88617
990.73506,609.93597
990.73506,610.71688
990.73506,664.59987
990.73506,611.4978
990.73506,656.00982
990.73506,653.66709
990.73506,654.448
990.73506,655.22891
990.73506,663.81895
992.94729,670.84717
992.94729,652.88617
992.94729,656.79074
992.94729,657.57165
992.94729,663.81895
992.94729,661.47621
992.94729,659.13348
992.94729,659.91439
992.94729,662.25713
992.94729,663.03804
992.94729,665.38078
992.94729,666.16169
992.94729,666.9426
992.94729,667.72352
992.94729,669.28534
992.94729,670.06625
992.94729,658.35256
995.15953,661.47621
995.15953,666.16169
995.15953,677.09447
995.15953,676.31356
995.15953,671.62808
995.15953,669.28534
995.15953,665.38078
995.15953,673.97082
995.15953,673.18991
995.15953,672.40899
995.15953,664.59987
995.15953,670.06625
995.15953,660.6953
995.15953,666.9426
995.15953,668.50443
997.37176,673.18991
997.37176,676.31356
997.37176,677.87538
997.37176,680.21812
997.37176,674.75173
997.37176,675.53264
997.37176,681.77995
997.37176,680.99903
997.37176,667.72352
997.37176,668.50443
997.37176,677.09447
997.37176,679.43721
997.37176,672.40899
997.37176,670.84717
997.37176,671.62808
999.584,684.12269
999.584,678.6563
999.584,673.97082
999.584,674.75173
999.584,675.53264
999.584,677.87538
999.584,682.56086
999.584,680.99903
999.584,683.34177
999.584,679.43721
999.584,685.68451
1001.79624,683.34177
1001.79624,685.68451
1001.79624,682.56086
1001.79624,686.46542
1001.79624,684.12269
1001.79624,680.21812
1001.79624,678.6563
1001.79624,684.9036
1001.79624,681.77995
1004.00847,688.80816
1004.00847,689.58907
1004.00847,687.24634
1004.00847,691.1509
1004.00847,690.36999
1004.00847,686.46542
1004.00847,684.9036
1004.00847,688.02725
1006.22071,690.36999
1006.22071,691.93181
1006.22071,692.71273
1006.22071,693.49364
1006.22071,695.83638
1006.22071,691.1509
1006.22071,687.24634
1006.22071,688.02725
1006.22071,688.80816
1006.22071,689.58907
1008.43294,693.49364
1008.43294,696.61729
1008.43294,691.93181
1008.43294,692.71273
1008.43294,694.27455
1008.43294,695.83638
1008.43294,695.05546
1010.64518,695.83638
1010.64518,694.27455
1010.64518,695.05546
1019.49412,691.93181
1021.70636,691.1509
1021.70636,694.27455
1021.70636,695.83638
1021.70636,695.05546
1021.70636,692.71273
1023.91859,689.58907
1023.91859,693.49364
1023.91859,695.83638
1023.91859,688.80816
1023.91859,690.36999
1026.13083,688.02725
1028.34306,687.24634
1028.34306,686.46542
1030.5553,685.68451
1030.5553,682.56086
1032.76753,683.34177
1032.76753,684.9036
1032.76753,684.12269
1032.76753,681.77995
1034.97977,680.99903
1034.97977,680.21812
1037.19201,679.43721
1037.19201,678.6563
1037.19201,677.87538
1037.19201,677.09447
1037.19201,676.31356
1037.19201,675.53264
1037.19201,674.75173
1039.40424,662.25713
1039.40424,673.18991
1039.40424,672.40899
1039.40424,671.62808
1039.40424,670.84717
1039.40424,670.06625
1039.40424,669.28534
1039.40424,663.03804
1039.40424,673.97082
1041.61648,656.00982
1041.61648,668.50443
1041.61648,666.16169
1041.61648,665.38078
1041.61648,664.59987
1041.61648,667.72352
1041.61648,663.81895
1041.61648,655.22891
1041.61648,661.47621
1041.61648,660.6953
1041.61648,659.91439
1041.61648,659.13348
1041.61648,666.9426
1043.82871,657.57165
1043.82871,656.79074
1043.82871,658.35256
1043.82871,654.448
1043.82871,652.88617
1043.82871,653.66709
1043.82871,652.10526
1046.04095,648.98161
1046.04095,651.32435
1046.04095,650.54344
1046.04095,604.46958
1046.04095,644.29613
1046.04095,646.63887
1046.04095,648.2007
1046.04095,603.68867
1046.04095,643.51522
1046.04095,647.41978
1048.25318,605.25049
1048.25318,645.85796
1048.25318,640.39157
1048.25318,602.90775
1048.25318,641.95339
1048.25318,642.73431
1048.25318,645.07705
1048.25318,649.76252
1048.25318,637.26792
1048.25318,636.487
1048.25318,641.17248
1050.46542,633.36335
1050.46542,635.70609
1050.46542,634.92518
1050.46542,634.14427
1050.46542,602.12684
1050.46542,638.82974
1050.46542,606.03141
1050.46542,630.2397
1050.46542,629.45879
1050.46542,638.04883
1050.46542,639.61066
1052.67766,631.80153
1052.67766,626.33514
1052.67766,627.11605
1052.67766,627.89696
1052.67766,631.02062
1052.67766,606.81232
1052.67766,607.59323
1052.67766,628.67788
1052.67766,609.15506
1052.67766,595.87954
1052.67766,611.4978
1052.67766,597.44137
1052.67766,598.22228
1052.67766,610.71688
1052.67766,632.58244
1052.67766,601.34593
1054.88989,595.87954
1054.88989,600.56502
1054.88989,596.66045
1054.88989,595.09863
1054.88989,612.27871
1054.88989,599.7841
1054.88989,599.00319
1054.88989,609.93597
1054.88989,608.37414
1054.88989,624.77331
1054.88989,623.9924
1054.88989,625.55423
1057.10213,620.08784
1057.10213,593.5368
1057.10213,623.21149
1057.10213,613.05962
1057.10213,594.31771
1057.10213,595.09863
1057.10213,621.64966
1057.10213,620.86875
1057.10213,622.43057
1057.10213,619.30692
1059.31436,616.96419
1059.31436,617.7451
1059.31436,618.52601
1059.31436,616.18327
1059.31436,615.40236
1059.31436,592.75589
1059.31436,613.84053
1059.31436,593.5368
1061.5266,614.62145
1061.5266,592.75589
1063.73883,592.75589
1065.95107,592.75589
1068.16331,592.75589
1070.37554,591.19406
1070.37554,592.75589
1070.37554,591.97498
1070.37554,590.41315
1072.58778,590.41315
1074.80001,591.19406
1077.01225,591.97498
1079.22448,592.75589
1081.43672,592.75589
1083.64895,591.97498
1085.86119,591.19406
1088.07343,590.41315
1090.28566,589.63224
1092.4979,589.63224
1094.71013,590.41315
1096.92237,590.41315
1099.1346,595.87954
1099.1346,591.19406
1099.1346,591.97498
1099.1346,592.75589
1099.1346,593.5368
1099.1346,594.31771
1099.1346,595.09863
1101.34684,597.44137
1101.34684,595.87954
1101.34684,596.66045
1103.55908,598.22228
1103.55908,597.44137
1103.55908,599.00319
1105.77131,599.7841
1105.77131,599.00319
1107.98355,599.7841
1107.98355,600.56502
1110.19578,602.12684
1110.19578,600.56502
1110.19578,601.34593
1110.19578,602.90775
1112.40802,602.90775
1114.62025,603.68867
1116.83249,604.46958
1119.04472,604.46958
1121.25696,606.81232
1121.25696,605.25049
1121.25696,606.03141
1123.4692,607.59323
1125.68143,607.59323
1127.89367,613.05962
1127.89367,608.37414
1127.89367,609.15506
1127.89367,611.4978
1127.89367,612.27871
1130.1059,610.71688
1130.1059,609.93597
1130.1059,613.05962
1132.31814,613.84053
1132.31814,613.05962
1134.53037,616.18327
1134.53037,614.62145
1134.53037,613.84053
1134.53037,615.40236
1136.74261,623.21149
1136.74261,621.64966
1136.74261,616.18327
1136.74261,616.96419
1136.74261,617.7451
1136.74261,618.52601
1136.74261,619.30692
1136.74261,620.08784
1136.74261,620.86875
1136.74261,622.43057
1138.95485,623.9924
1141.16708,623.9924
1143.37932,623.9924
1145.59155,623.21149
1147.80379,623.21149
1150.01602,621.64966
1150.01602,623.21149
1150.01602,622.43057
1152.22826,620.08784
1152.22826,621.64966
1152.22826,620.86875
1152.22826,618.52601
1152.22826,619.30692
1152.22826,616.18327
1152.22826,616.96419
1152.22826,617.7451
1154.4405,616.18327
1156.65273,615.40236
1158.86497,614.62145
1161.0772,613.84053
1161.0772,611.4978
1161.0772,613.05962
1161.0772,612.27871
1163.28944,610.71688
1163.28944,609.93597
1163.28944,609.15506
1165.50167,599.7841
1165.50167,600.56502
1165.50167,608.37414
1165.50167,599.00319
1165.50167,601.34593
1165.50167,602.12684
1167.71391,607.59323
1167.71391,599.00319
1167.71391,598.22228
1167.71391,602.90775
1167.71391,597.44137
1167.71391,604.46958
1169.92614,606.03141
1169.92614,596.66045
1169.92614,606.81232
1169.92614,603.68867
1169.92614,605.25049
1172.13838,596.66045
1174.35062,595.09863
1174.35062,595.87954
1174.35062,594.31771
1176.56285,593.5368
1176.56285,594.31771
1178.77509,593.5368
1178.77509,591.97498
1178.77509,592.75589
1180.98732,591.97498
1180.98732,591.19406
1183.19956,590.41315
1183.19956,591.19406
1185.41179,590.41315
1187.62403,590.41315
1189.83627,590.41315
1192.0485,590.41315
1194.26074,590.41315
1194.26074,588.85132
1194.26074,588.07041
1194.26074,589.63224
1196.47297,587.2895
1198.68521,588.07041
1200.89744,588.85132
1203.10968,589.63224
1205.32192,589.63224
1207.53415,590.41315
1209.74639,590.41315
1211.95862,589.63224
1214.17086,588.85132
1216.38309,588.07041
1218.59533,588.85132
1220.80756,589.63224
1223.0198,589.63224
1225.23204,588.85132
1227.44427,588.07041
1229.65651,588.07041
1231.86874,588.85132
1234.08098,588.85132
1236.29321,588.85132
1238.50545,588.07041
1240.71769,588.07041
1242.92992,588.07041
1245.14216,588.07041
1247.35439,588.07041
1249.56663,588.85132
1251.77886,588.85132
1253.9911,588.85132
1256.20333,588.85132
1258.41557,588.85132
1260.62781,588.85132
1262.84004,588.07041
1265.05228,587.2895
1267.26451,586.50859
1269.47675,586.50859
1271.68898,586.50859
1273.90122,586.50859
1276.11346,586.50859
1278.32569,587.2895
1280.53793,588.07041
1282.75016,588.85132
1284.9624,589.63224
1287.17463,589.63224
1289.38687,589.63224
1291.59911,589.63224
1293.81134,589.63224
1296.02358,589.63224
1298.23581,589.63224
1300.44805,589.63224
1302.66028,589.63224
1304.87252,589.63224
1307.08475,589.63224
1309.29699,588.85132
1311.50923,588.85132
1313.72146,588.07041
1315.9337,587.2895
1318.14593,586.50859
1320.35817,585.72767
1322.5704,584.94676
1324.78264,584.16585
1326.99488,584.16585
1329.20711,584.16585
1331.41935,584.16585
1333.63158,584.16585
1335.84382,584.16585
1338.05605,584.16585
1340.26829,584.16585
1342.48052,584.16585
1344.69276,584.16585
1346.905,584.16585
1349.11723,584.16585
1351.32947,584.16585
1353.5417,584.16585
1355.75394,584.16585
1357.96617,584.16585
1360.17841,584.16585
1362.39065,584.16585
1364.60288,584.16585
1366.81512,584.16585
1369.02735,584.16585
1371.23959,584.16585
1373.45182,584.16585
1375.66406,584.16585
1377.8763,584.16585
1380.08853,584.16585
1382.30077,584.16585
1384.513,584.16585
1386.72524,584.16585
1388.93747,584.16585
1391.14971,584.94676
1393.36194,585.72767
1395.57418,586.50859
1397.78642,587.2895
1399.99865,588.07041
1402.21089,588.85132
1404.42312,589.63224
1406.63536,589.63224
1408.84759,589.63224
1411.05983,589.63224
1413.27207,589.63224
1415.4843,588.85132
1417.69654,588.85132
1419.90877,588.07041
1422.12101,587.2895
1424.33324,586.50859
1426.54548,585.72767
1428.75772,584.94676
1430.96995,584.16585
1433.18219,583.38494
1435.39442,583.38494
1437.60666,583.38494
1439.81889,583.38494
1442.03113,583.38494
1444.24336,583.38494
1446.4556,583.38494
1448.66784,583.38494
1450.88007,583.38494
1453.09231,583.38494
1455.30454,583.38494
1457.51678,583.38494
1459.72901,583.38494
1461.94125,583.38494
1464.15349,583.38494
1466.36572,583.38494
1468.57796,583.38494
1470.79019,583.38494
1473.00243,583.38494
1475.21466,583.38494
1477.4269,583.38494
1479.63913,583.38494
1481.85137,583.38494
1484.06361,583.38494
1486.27584,583.38494
1488.48808,583.38494
1490.70031,583.38494
1492.91255,583.38494
1495.12478,583.38494
1497.33702,583.38494
1499.54926,583.38494
1501.76149,583.38494
1503.97373,584.16585
1506.18596,584.94676
1508.3982,585.72767
1510.61043,586.50859
1512.82267,587.2895
1515.03491,588.07041
1517.24714,588.85132
1519.45938,589.63224
1521.67161,589.63224
1523.88385,589.63224
1526.09608,589.63224
1528.30832,588.85132
1530.52055,589.63224
1532.73279,589.63224
1534.94503,588.85132
1537.15726,588.07041
1539.3695,587.2895
1541.58173,586.50859
1543.79397,585.72767
1546.0062,585.72767
1548.21844,585.72767
1550.43068,584.94676
1552.64291,584.16585
1554.85515,583.38494
1557.06738,583.38494
1559.27962,584.16585
1561.49185,584.16585
1563.70409,584.16585
1565.91633,584.16585
1568.12856,584.94676
1570.3408,585.72767
1572.55303,585.72767
1574.76527,584.94676
1576.9775,584.94676
1579.18974,584.94676
1581.40197,584.94676
1583.61421,585.72767
1585.82645,584.94676
1588.03868,584.94676
1590.25092,584.94676
1592.46315,585.72767
1594.67539,585.72767
1596.88762,585.72767
1599.09986,585.72767
1601.3121,586.50859
1603.52433,587.2895
1605.73657,588.07041
1607.9488,588.07041
1610.16104,588.07041
1612.37327,587.2895
1614.58551,586.50859
1616.79774,586.50859
1619.00998,587.2895
1621.22222,588.07041
1623.43445,588.85132
1625.64669,589.63224
1627.85892,589.63224
1630.07116,589.63224
1632.28339,588.85132
1634.49563,588.07041
1636.70787,587.2895
1638.9201,586.50859
1641.13234,586.50859
1643.34457,586.50859
1645.55681,586.50859
1647.76904,587.2895
1649.98128,588.07041
1652.19352,588.85132
1654.40575,588.07041
1656.61799,588.85132
1658.83022,589.63224
1661.04246,590.41315
1663.25469,590.41315
1665.46693,590.41315
1667.67916,590.41315
1669.8914,590.41315
1672.10364,589.63224
1674.31587,589.63224
1676.52811,589.63224
1678.74034,589.63224
1680.95258,588.85132
1683.16481,588.85132
1685.37705,588.85132
1687.58929,588.07041
1689.80152,587.2895
1692.01376,587.2895
1694.22599,587.2895
1696.43823,587.2895
1698.65046,587.2895
1700.8627,587.2895
1703.07493,586.50859
1705.28717,585.72767
1707.49941,585.72767
1709.71164,585.72767
1711.92388,585.72767
1714.13611,585.72767
1716.34835,586.50859
1718.56058,587.2895
1720.77282,588.07041
1722.98506,588.85132
1725.19729,589.63224
1727.40953,589.63224
1729.62176,589.63224
1731.834,589.63224
1734.04623,588.85132
1736.25847,589.63224
1738.47071,589.63224
1740.68294,589.63224
1742.89518,589.63224
1745.10741,589.63224
1747.31965,588.85132
1749.53188,588.85132
1751.74412,588.07041
1753.95635,587.2895
1756.16859,586.50859
1758.38083,585.72767
1760.59306,584.94676
1762.8053,584.16585
1765.01753,584.16585
1767.22977,584.16585
1769.442,584.16585
1771.65424,584.16585
1773.86648,584.16585
1776.07871,584.16585
1778.29095,584.16585
1780.50318,584.16585
1782.71542,584.16585
1784.92765,584.16585
1787.13989,584.16585
1789.35213,584.16585
1791.56436,584.16585
1793.7766,584.16585
1795.98883,584.16585
1798.20107,584.16585
1800.4133,584.16585
1802.62554,584.16585
1804.83777,584.16585
1807.05001,584.16585
1809.26225,584.16585
1811.47448,584.16585
1813.68672,584.16585
1815.89895,584.16585
1818.11119,584.16585
1820.32342,584.16585
1822.53566,584.16585
1824.7479,584.16585
1826.96013,584.16585
1829.17237,584.16585
1831.3846,584.16585
1833.59684,584.16585
1835.80907,584.16585
1838.02131,584.16585
1840.23354,584.16585
1842.44578,584.94676
1844.65802,584.94676
1846.87025,584.94676
1849.08249,584.94676
1851.29472,584.94676
1853.50696,584.94676
1855.71919,584.94676
1857.93143,584.94676
1860.14367,584.94676
1862.3559,584.94676
1864.56814,584.94676
1866.78037,584.94676
1868.99261,584.94676
1871.20484,584.94676
1873.41708,584.94676
1875.62932,584.94676
1877.84155,584.94676
1880.05379,584.94676
1882.26602,584.94676
1884.47826,585.72767
1886.69049,585.72767
1888.90273,585.72767
1891.11496,585.72767
1893.3272,585.72767
1895.53944,585.72767
1897.75167,585.72767
1899.96391,585.72767
1902.17614,585.72767
1904.38838,585.72767
1906.60061,585.72767
1908.81285,585.72767
1911.02509,585.72767
1913.23732,585.72767
1915.44956,585.72767
1917.66179,585.72767
1919.87403,585.72767
1922.08626,585.72767
1924.2985,585.72767
1926.51073,585.72767
1928.72297,585.72767
1930.93521,585.72767
1933.14744,585.72767
1935.35968,585.72767
1937.57191,585.72767
1939.78415,585.72767
1941.99638,585.72767
1944.20862,585.72767
1946.42086,585.72767
1948.63309,585.72767
1950.84533,585.72767
1953.05756,585.72767
1955.2698,585.72767
1957.48203,586.50859
1959.69427,586.50859
1961.90651,586.50859
1964.11874,586.50859
1966.33098,586.50859
1968.54321,586.50859
1970.75545,587.2895
1972.96768,588.07041
1975.17992,588.85132
1977.39215,588.07041
1979.60439,587.2895
1981.81663,587.2895
1984.02886,587.2895
1986.2411,586.50859
1988.45333,586.50859
1990.66557,586.50859
1992.8778,586.50859
1995.09004,586.50859
1997.30228,586.50859
1999.51451,587.2895
2001.72675,586.50859
2003.93898,586.50859
2006.15122,586.50859
2008.36345,586.50859
2010.57569,586.50859
2012.78793,586.50859
2015.00016,586.50859
2017.2124,587.2895
2019.42463,588.07041
2021.63687,588.85132
2023.8491,589.63224
2026.06134,589.63224
2028.27357,589.63224
2030.48581,589.63224
2032.69805,589.63224
2034.91028,588.85132
2037.12252,588.07041
2039.33475,587.2895
2041.54699,586.50859
2043.75922,586.50859
2045.97146,586.50859
2048.1837,586.50859
2050.39593,586.50859
2052.60817,586.50859
2054.8204,586.50859
2057.03264,586.50859
2059.24487,586.50859
2061.45711,586.50859
2063.66934,586.50859
2065.88158,586.50859
2068.09382,586.50859
2070.30605,586.50859
2072.51829,586.50859
2074.73052,586.50859
2076.94276,586.50859
2079.15499,586.50859
2081.36723,586.50859
2083.57947,587.2895
2085.7917,588.07041
2088.00394,588.85132
2090.21617,589.63224
2092.42841,590.41315
2094.64064,589.63224
2096.85288,588.85132
2099.06512,588.07041
2101.27735,587.2895
2103.48959,586.50859
2105.70182,586.50859
2107.91406,586.50859
2110.12629,586.50859
2112.33853,587.2895
2114.55076,587.2895
2116.763,588.07041
2118.97524,588.85132
2121.18747,589.63224
2123.39971,589.63224
2125.61194,588.85132
2127.82418,588.07041
2130.03641,587.2895
2132.24865,586.50859
2134.46089,586.50859
2136.67312,586.50859
2138.88536,586.50859
2141.09759,586.50859
2143.30983,587.2895
2145.52206,587.2895
2147.7343,587.2895
2149.94654,587.2895
2152.15877,587.2895
2154.37101,587.2895
2156.58324,587.2895
2158.79548,587.2895
2161.00771,587.2895
2163.21995,587.2895
2165.43218,587.2895
2167.64442,587.2895
2169.85666,587.2895
2172.06889,587.2895
2174.28113,586.50859
2176.49336,586.50859
2178.7056,586.50859
2180.91783,586.50859
2183.13007,586.50859
2185.34231,587.2895
2187.55454,588.07041
2189.76678,588.07041
2191.97901,588.07041
2194.19125,588.07041
2196.40348,588.07041
2198.61572,588.85132
2200.82795,588.85132
2203.04019,588.85132
2205.25243,588.85132
2207.46466,588.85132
2209.6769,588.07041
2211.88913,587.2895
2214.10137,587.2895
2216.3136,587.2895
2218.52584,587.2895
2220.73808,587.2895
2222.95031,587.2895
2225.16255,587.2895
2227.37478,587.2895
2229.58702,587.2895
2231.79925,587.2895
2234.01149,587.2895
2236.22373,587.2895
2238.43596,587.2895
2240.6482,587.2895
2242.86043,587.2895
2245.07267,587.2895
2247.2849,587.2895
2249.49714,587.2895
2251.70937,587.2895
2253.92161,588.07041
2256.13385,588.85132
2258.34608,589.63224
2260.55832,589.63224
2262.77055,589.63224
2264.98279,588.85132
2267.19502,588.85132
2269.40726,588.85132
2271.6195,588.85132
2273.83173,588.85132
2276.04397,589.63224
2278.2562,589.63224
2280.46844,589.63224
2282.68067,588.85132
2284.89291,588.85132
2287.10514,588.85132
2289.31738,588.07041
2291.52962,588.85132
2293.74185,589.63224
2295.95409,589.63224
2298.16632,589.63224
2300.37856,589.63224
2302.59079,588.85132
2304.80303,588.07041
2307.01527,587.2895
2309.2275,586.50859
2311.43974,586.50859
2313.65197,586.50859
2315.86421,586.50859
2318.07644,586.50859
2320.28868,586.50859
2322.50092,586.50859
2324.71315,586.50859
2326.92539,586.50859
2329.13762,586.50859
2331.34986,586.50859
2333.56209,586.50859
2335.77433,587.2895
2337.98656,588.07041
2340.1988,587.2895
2342.41104,586.50859
2344.62327,587.2895
2346.83551,588.07041
2349.04774,587.2895
2351.25998,586.50859
2353.47221,586.50859
2355.68445,587.2895
2357.89669,586.50859
2360.10892,586.50859
2362.32116,586.50859
2364.53339,586.50859
2366.74563,586.50859
2368.95786,587.2895
2371.1701,588.07041
2373.38234,588.85132
2375.59457,589.63224
2377.80681,590.41315
2380.01904,589.63224
2382.23128,588.85132
2384.44351,588.07041
2386.65575,588.07041
2388.86798,588.85132
2391.08022,588.85132
2393.29246,588.85132
2395.50469,588.85132
2397.71693,588.85132
2399.92916,588.85132
2402.1414,588.85132
2404.35363,588.07041
2406.56587,587.2895
2408.77811,586.50859
2410.99034,586.50859
2413.20258,586.50859
2415.41481,586.50859
2417.62705,586.50859
2419.83928,586.50859
2422.05152,586.50859
2424.26375,586.50859
2426.47599,586.50859
2428.68823,586.50859
2430.90046,586.50859
2433.1127,587.2895
2435.32493,588.07041
2437.53717,588.85132
2439.7494,588.85132
2441.96164,588.85132
2444.17388,589.63224
2446.38611,589.63224
2448.59835,589.63224
2450.81058,588.85132
2453.02282,588.07041
2455.23505,587.2895
2457.44729,586.50859
2459.65953,586.50859
2461.87176,586.50859
2464.084,586.50859
2466.29623,586.50859
2468.50847,586.50859
2470.7207,586.50859
2472.93294,586.50859
2475.14517,586.50859
2477.35741,586.50859
2479.56965,586.50859
2481.78188,586.50859
2483.99412,586.50859
2486.20635,586.50859
2488.41859,586.50859
2490.63082,586.50859
2492.84306,586.50859
2495.0553,586.50859
2497.26753,586.50859
2499.47977,586.50859
2501.692,586.50859
2503.90424,586.50859
2506.11647,586.50859
2508.32871,586.50859
2510.54095,586.50859
2512.75318,586.50859
2514.96542,586.50859
2517.17765,586.50859
2519.38989,586.50859
2521.60212,586.50859
2523.81436,587.2895
2526.02659,586.50859
2528.23883,586.50859
2530.45107,586.50859
2532.6633,586.50859
2534.87554,586.50859
2537.08777,587.2895
2539.30001,588.07041
2541.51224,588.85132
2543.72448,588.85132
2545.93672,588.85132
2548.14895,588.85132
2550.36119,588.07041
2552.57342,587.2895
2554.78566,586.50859
2556.99789,586.50859
2559.21013,586.50859
2561.42236,586.50859
2563.6346,586.50859
2565.84684,586.50859
2568.05907,586.50859
2570.27131,586.50859
2572.48354,586.50859
2574.69578,586.50859
2576.90801,586.50859
2579.12025,586.50859
2581.33249,586.50859
2583.54472,586.50859
2585.75696,586.50859
2587.96919,586.50859
2590.18143,586.50859
2592.39366,586.50859
2594.6059,586.50859
2596.81814,586.50859
2599.03037,586.50859
2601.24261,586.50859
2603.45484,586.50859
2605.66708,586.50859
2607.87931,586.50859
2610.09155,586.50859
2612.30378,586.50859
2614.51602,586.50859
2616.72826,586.50859
2618.94049,587.2895
2621.15273,587.2895
2623.36496,587.2895
2625.5772,588.07041
2627.78943,588.85132
2630.00167,589.63224
2632.21391,589.63224
2634.42614,588.85132
2636.63838,588.85132
2638.85061,588.07041
2641.06285,587.2895
2643.27508,586.50859
2645.48732,586.50859
2647.69955,586.50859
2649.91179,586.50859
2652.12403,586.50859
2654.33626,586.50859
2656.5485,586.50859
2658.76073,586.50859
2660.97297,586.50859
2663.1852,586.50859
2665.39744,586.50859
2667.60968,586.50859
2669.82191,586.50859
2672.03415,586.50859
2674.24638,586.50859
2676.45862,586.50859
2678.67085,586.50859
2680.88309,587.2895
2683.09533,588.07041
2685.30756,588.85132
2687.5198,589.63224
2689.73203,590.41315
2691.94427,590.41315
2694.1565,590.41315
2696.36874,590.41315
2698.58097,590.41315
2700.79321,590.41315
2703.00545,591.19406
2705.21768,591.97498
2707.42992,591.97498
2709.64215,591.97498
2711.85439,591.97498
2714.06662,591.97498
2716.27886,591.19406
2718.4911,590.41315
2720.70333,590.41315
2722.91557,591.19406
2725.1278,591.97498
2727.34004,591.97498
2729.55227,591.97498
2731.76451,591.97498
2733.97675,591.19406
2736.18898,591.19406
2738.40122,591.19406
2740.61345,591.19406
2742.82569,591.19406
2745.03792,591.97498
2747.25016,591.97498
2749.46239,591.97498
2751.67463,591.97498
2753.88687,591.97498
2756.0991,591.97498
2758.31134,591.97498
2760.52357,591.19406
2762.73581,591.19406
2764.94804,591.19406
2767.16028,591.19406
2769.37252,591.19406
2771.58475,591.19406
2773.79699,591.19406
2776.00922,591.19406
2778.22146,591.19406
2780.43369,591.19406
2782.64593,591.19406
2784.85816,591.19406
2787.0704,591.19406
2789.28264,590.41315
2791.49487,589.63224
2793.70711,588.85132
2795.91934,589.63224
2798.13158,590.41315
2800.34381,591.19406
2802.55605,591.19406
2804.76829,591.19406
2806.98052,591.19406
2809.19276,590.41315
2811.40499,590.41315
2813.61723,590.41315
2815.82946,590.41315
2818.0417,590.41315
2820.25394,590.41315
2822.46617,590.41315
2824.67841,590.41315
2826.89064,590.41315
2829.10288,589.63224
2831.31511,590.41315
2833.52735,590.41315
2835.73958,590.41315
2837.95182,590.41315
2840.16406,590.41315
2842.37629,590.41315
2844.58853,590.41315
2846.80076,590.41315
2849.013,589.63224
2851.22523,589.63224
2853.43747,589.63224
2855.64971,589.63224
2857.86194,589.63224
2860.07418,589.63224
2862.28641,589.63224
2864.49865,589.63224
2866.71088,589.63224
2868.92312,588.85132
2871.13536,588.07041
2873.34759,588.85132
2875.55983,588.85132
2877.77206,588.85132
2879.9843,588.85132
2882.19653,588.85132
2884.40877,588.85132
2886.621,588.85132
2888.83324,588.85132
2891.04548,588.85132
2893.25771,588.85132
2895.46995,588.07041
2897.68218,587.2895
2899.89442,586.50859
2902.10665,586.50859
2904.31889,586.50859
2906.53113,586.50859
2908.74336,587.2895
2910.9556,588.07041
2913.16783,588.85132
2915.38007,589.63224
2917.5923,589.63224
2919.80454,589.63224
2922.01677,589.63224
2924.22901,588.85132
2926.44125,588.07041
2928.65348,587.2895
2930.86572,587.2895
2933.07795,587.2895
2935.29019,587.2895
2937.50242,586.50859
2939.71466,587.2895
2941.9269,588.07041
2944.13913,588.85132
2946.35137,589.63224
2948.5636,589.63224
2950.77584,589.63224
2952.98807,589.63224
2955.20031,589.63224
2957.41255,588.85132
2959.62478,588.07041
2961.83702,587.2895
2964.04925,586.50859
2966.26149,585.72767
2968.47372,586.50859
2970.68596,587.2895
2972.89819,587.2895
2975.11043,587.2895
2977.32267,587.2895
2979.5349,587.2895
2981.74714,587.2895
2983.95937,587.2895
2986.17161,587.2895
2988.38384,587.2895
2990.59608,588.07041
2992.80832,588.85132
2995.02055,588.85132
2997.23279,588.85132
2999.44502,589.63224
3001.65726,590.41315
3003.86949,590.41315
3006.08173,590.41315
3008.29396,590.41315
3010.5062,590.41315
3012.71844,590.41315
3014.93067,590.41315
3017.14291,590.41315
3019.35514,589.63224
3021.56738,589.63224
3023.77961,588.85132
3025.99185,588.07041
3028.20409,587.2895
3030.41632,586.50859
3032.62856,585.72767
3034.84079,584.94676
3037.05303,584.16585
3039.26526,583.38494
3041.4775,583.38494
3043.68974,583.38494
3045.90197,583.38494
3048.11421,583.38494
3050.32644,583.38494
3052.53868,583.38494
3054.75091,583.38494
3056.96315,583.38494
3059.17538,583.38494
3061.38762,583.38494
3063.59986,583.38494
3065.81209,583.38494
3068.02433,583.38494
3070.23656,584.16585
3072.4488,584.16585
3074.66103,584.16585
3076.87327,584.16585
3079.08551,584.16585
3081.29774,584.16585
3083.50998,584.16585
3085.72221,584.94676
3087.93445,584.16585
3090.14668,584.16585
3092.35892,584.16585
3094.57116,584.16585
3096.78339,584.16585
3098.99563,584.16585
3101.20786,584.94676
3103.4201,584.94676
3105.63233,585.72767
3107.84457,586.50859
3110.0568,587.2895
3112.26904,587.2895
3114.48128,586.50859
3116.69351,585.72767
3118.90575,584.94676
3121.11798,584.94676
3123.33022,584.94676
3125.54245,584.94676
3127.75469,584.94676
3129.96693,585.72767
3132.17916,584.94676
3134.3914,584.94676
3136.60363,584.94676
3138.81587,584.94676
3141.0281,584.94676
3143.24034,584.94676
3145.45257,584.94676
3147.66481,584.94676
3149.87705,585.72767
3152.08928,585.72767
3154.30152,585.72767
3156.51375,585.72767
3158.72599,585.72767
3160.93822,585.72767
3163.15046,586.50859
3165.3627,585.72767
3167.57493,585.72767
3169.78717,585.72767
3171.9994,585.72767
3174.21164,586.50859
3176.42387,586.50859
3178.63611,586.50859
3180.84835,586.50859
3183.06058,587.2895
3185.27282,586.50859
3187.48505,587.2895
3189.69729,587.2895
3191.90952,587.2895
3194.12176,587.2895
3196.33399,587.2895
3198.54623,587.2895
3200.75847,588.07041
3202.9707,588.07041
3205.18294,588.07041
3207.39517,588.85132
3209.60741,589.63224
3211.81964,590.41315
3214.03188,590.41315
3216.24412,590.41315
3218.45635,589.63224
3220.66859,590.41315
3222.88082,589.63224
3225.09306,589.63224
3227.30529,590.41315
3229.51753,589.63224
3231.72976,590.41315
3233.942,591.19406
3236.15424,591.97498
3238.36647,592.75589
3240.57871,592.75589
3242.79094,592.75589
3245.00318,593.5368
3247.21541,593.5368
3249.42765,593.5368
3251.63989,594.31771
3253.85212,594.31771
3256.06436,594.31771
3258.27659,594.31771
3260.48883,594.31771
3262.70106,593.5368
3264.9133,594.31771
3267.12554,594.31771
3269.33777,595.09863
3271.55001,595.87954
3273.76224,596.66045
3275.97448,597.44137
3278.18671,597.44137
3280.39895,597.44137
3282.61118,598.22228
3284.82342,599.00319
3287.03566,598.22228
3289.24789,599.00319
3291.46013,599.7841
3293.67236,600.56502
3295.8846,600.56502
3298.09683,599.7841
3300.30907,599.00319
3302.52131,598.22228
3304.73354,598.22228
3306.94578,598.22228
3309.15801,598.22228
3311.37025,599.00319
3313.58248,599.00319
3315.79472,599.00319
3318.00696,599.00319
3320.21919,599.7841
3322.43143,600.56502
3324.64366,599.7841
3326.8559,600.56502
3329.06813,601.34593
3331.28037,602.12684
3333.4926,602.12684
3333.4926,603.68867
3333.4926,602.90775
3335.70484,603.68867
3335.70484,604.46958
3335.70484,605.25049
3335.70484,606.03141
3335.70484,607.59323
3335.70484,606.81232
3337.91708,608.37414
3337.91708,607.59323
3340.12931,609.15506
3342.34155,609.15506
3344.55378,609.93597
3344.55378,609.15506
3346.76602,610.71688
3346.76602,609.93597
3348.97825,610.71688
3348.97825,611.4978
3351.19049,611.4978
3353.40273,612.27871
3353.40273,611.4978
3355.61496,612.27871
3355.61496,613.05962
3355.61496,613.84053
3355.61496,614.62145
3357.8272,614.62145
3360.03943,615.40236
3362.25167,616.96419
3362.25167,616.18327
3364.4639,616.96419
3366.67614,616.96419
3368.88837,616.96419
3371.10061,616.96419
3373.31285,629.45879
3373.31285,616.96419
3373.31285,628.67788
3375.52508,616.96419
3375.52508,627.89696
3375.52508,630.2397
3375.52508,632.58244
3375.52508,631.80153
3375.52508,631.02062
3377.73732,634.14427
3377.73732,619.30692
3377.73732,634.92518
3377.73732,635.70609
3377.73732,620.08784
3377.73732,627.11605
3377.73732,618.52601
3377.73732,617.7451
3377.73732,636.487
3377.73732,633.36335
3379.94955,626.33514
3379.94955,620.86875
3379.94955,637.26792
3382.16179,623.21149
3382.16179,622.43057
3382.16179,621.64966
3382.16179,638.04883
3382.16179,641.95339
3382.16179,625.55423
3382.16179,641.17248
3382.16179,638.82974
3382.16179,639.61066
3382.16179,640.39157
3382.16179,623.9924
3384.37402,645.07705
3384.37402,624.77331
3384.37402,645.85796
3384.37402,642.73431
3384.37402,646.63887
3386.58626,644.29613
3386.58626,643.51522
3386.58626,647.41978
3388.7985,648.98161
3388.7985,648.2007
3391.01073,656.00982
3391.01073,649.76252
3391.01073,654.448
3391.01073,653.66709
3391.01073,657.57165
3391.01073,656.79074
3391.01073,655.22891
3393.22297,660.6953
3393.22297,651.32435
3393.22297,650.54344
3393.22297,652.10526
3393.22297,652.88617
3393.22297,658.35256
3393.22297,659.13348
3393.22297,659.91439
3395.4352,661.47621
3397.64744,666.16169
3397.64744,662.25713
3399.85967,663.03804
3399.85967,666.9426
3399.85967,665.38078
3399.85967,667.72352
3402.07191,670.06625
3402.07191,663.81895
3402.07191,664.59987
3402.07191,668.50443
3402.07191,669.28534
3404.28415,670.84717
3406.49638,670.84717
3408.70862,670.84717
3410.92085,670.84717
3413.13309,673.97082
3413.13309,670.84717
3413.13309,671.62808
3413.13309,672.40899
3413.13309,673.18991
3415.34532,673.97082
3417.55756,675.53264
3417.55756,673.97082
3419.76979,674.75173
3419.76979,672.40899
3419.76979,671.62808
3419.76979,670.84717
3419.76979,670.06625
3419.76979,673.97082
3419.76979,673.18991
3421.98203,669.28534
3421.98203,673.97082
3421.98203,673.18991
3421.98203,672.40899
3421.98203,671.62808
3421.98203,670.84717
3424.19427,670.84717
3424.19427,670.06625
3424.19427,668.50443
3426.4065,666.9426
3426.4065,667.72352
3426.4065,666.16169
3426.4065,658.35256
3426.4065,657.57165
3426.4065,659.13348
3426.4065,659.91439
3426.4065,660.6953
3426.4065,661.47621
3426.4065,662.25713
3426.4065,663.03804
3426.4065,663.81895
3426.4065,664.59987
3426.4065,665.38078
3426.4065,670.06625
3426.4065,669.28534
3426.4065,668.50443
3428.61874,668.50443
3428.61874,656.00982
3428.61874,656.79074
3428.61874,655.22891
3430.83097,654.448
3430.83097,653.66709
3430.83097,652.88617
3430.83097,668.50443
3433.04321,666.9426
3433.04321,667.72352
3433.04321,668.50443
3433.04321,666.16169
3433.04321,651.32435
3433.04321,652.10526
3435.25544,648.98161
3435.25544,665.38078
3435.25544,650.54344
3437.46768,649.76252
3437.46768,648.2007
3437.46768,663.81895
3437.46768,665.38078
3439.67992,663.03804
3439.67992,648.2007
3439.67992,664.59987
3441.89215,661.47621
3441.89215,648.2007
3441.89215,658.35256
3441.89215,662.25713
3444.10439,659.13348
3444.10439,657.57165
3444.10439,658.35256
3444.10439,660.6953
3444.10439,659.91439
3444.10439,647.41978
3444.10439,648.2007
3446.31662,647.41978
3446.31662,646.63887
3446.31662,656.79074
3448.52886,655.22891
3448.52886,656.00982
3448.52886,653.66709
3448.52886,654.448
3448.52886,645.85796
3448.52886,646.63887
3450.74109,648.98161
3450.74109,644.29613
3450.74109,652.88617
3450.74109,645.85796
3450.74109,653.66709
3450.74109,647.41978
3450.74109,643.51522
3450.74109,642.73431
3450.74109,641.95339
3450.74109,645.07705
3450.74109,652.10526
3450.74109,651.32435
3450.74109,650.54344
3450.74109,649.76252
3450.74109,648.2007
3452.95333,646.63887
3452.95333,641.95339
3455.16557,644.29613
3455.16557,643.51522
3455.16557,645.85796
3455.16557,641.17248
3455.16557,641.95339
3455.16557,645.07705
3455.16557,642.73431
3457.3778,641.17248
3457.3778,643.51522
3457.3778,642.73431
3459.59004,641.95339
3459.59004,645.07705
3459.59004,644.29613
3459.59004,643.51522
3459.59004,641.17248
3459.59004,642.73431
3461.80227,641.95339
3461.80227,642.73431
3461.80227,643.51522
3461.80227,644.29613
3461.80227,645.07705
3461.80227,641.17248
3461.80227,640.39157
3461.80227,645.85796
3464.01451,645.07705
3464.01451,645.85796
3464.01451,646.63887
3466.22674,646.63887
3466.22674,645.85796
3468.43898,645.85796
3468.43898,659.91439
3468.43898,653.66709
3468.43898,657.57165
3468.43898,658.35256
3468.43898,654.448
3468.43898,646.63887
3468.43898,659.13348
3470.65121,648.2007
3470.65121,655.22891
3470.65121,652.10526
3470.65121,660.6953
3470.65121,663.03804
3470.65121,649.76252
3470.65121,646.63887
3470.65121,651.32435
3470.65121,645.85796
3470.65121,665.38078
3470.65121,663.81895
3470.65121,664.59987
3470.65121,650.54344
3470.65121,656.00982
3470.65121,653.66709
3470.65121,656.79074
3470.65121,652.88617
3470.65121,648.98161
3472.86345,666.16169
3472.86345,661.47621
3472.86345,668.50443
3472.86345,664.59987
3472.86345,662.25713
3472.86345,654.448
3472.86345,666.9426
3472.86345,647.41978
3472.86345,663.03804
3472.86345,655.22891
3472.86345,656.00982
3472.86345,667.72352
3472.86345,651.32435
3472.86345,650.54344
3472.86345,648.2007
3472.86345,652.88617
3472.86345,652.10526
3472.86345,669.28534
3472.86345,646.63887
3472.86345,663.81895
3475.07569,666.16169
3475.07569,649.76252
3475.07569,670.84717
3475.07569,651.32435
3475.07569,666.9426
3475.07569,667.72352
3475.07569,656.79074
3475.07569,657.57165
3475.07569,656.00982
3475.07569,670.06625
3475.07569,662.25713
3475.07569,659.13348
3475.07569,652.88617
3475.07569,647.41978
3475.07569,650.54344
3475.07569,665.38078
3475.07569,658.35256
3475.07569,648.98161
3475.07569,652.10526
3475.07569,668.50443
3477.28792,661.47621
3477.28792,659.91439
3477.28792,660.6953
3477.28792,659.13348
3477.28792,658.35256
3477.28792,669.28534
3477.28792,672.40899
3477.28792,656.00982
3477.28792,652.88617
3477.28792,656.79074
3477.28792,655.22891
3477.28792,654.448
3477.28792,653.66709
3477.28792,649.76252
3477.28792,671.62808
3477.28792,674.75173
3477.28792,673.18991
3477.28792,673.97082
3477.28792,676.31356
3477.28792,675.53264
3477.28792,657.57165
3479.50016,654.448
3479.50016,661.47621
3479.50016,665.38078
3479.50016,664.59987
3479.50016,679.43721
3479.50016,663.81895
3479.50016,677.87538
3479.50016,677.09447
3479.50016,663.03804
3479.50016,668.50443
3479.50016,672.40899
3479.50016,671.62808
3479.50016,670.84717
3479.50016,670.06625
3479.50016,659.91439
3479.50016,660.6953
3479.50016,662.25713
3479.50016,674.75173
3479.50016,656.79074
3479.50016,673.97082
3479.50016,655.22891
3479.50016,673.18991
3479.50016,653.66709
3479.50016,675.53264
3479.50016,678.6563
3479.50016,657.57165
3481.71239,658.35256
3481.71239,679.43721
3481.71239,659.13348
3481.71239,677.87538
3481.71239,677.09447
3481.71239,676.31356
3481.71239,661.47621
3481.71239,673.18991
3481.71239,660.6953
3481.71239,657.57165
3481.71239,659.91439
3481.71239,674.75173
3481.71239,673.97082
3481.71239,678.6563
3481.71239,680.21812
3481.71239,680.99903
3481.71239,681.77995
3481.71239,667.72352
3481.71239,664.59987
3481.71239,666.9426
3481.71239,663.81895
3481.71239,666.16169
3481.71239,669.28534
3481.71239,670.06625
3481.71239,670.84717
3481.71239,671.62808
3481.71239,663.03804
3481.71239,662.25713
3481.71239,672.40899
3481.71239,665.38078
3483.92463,669.28534
3483.92463,668.50443
3483.92463,672.40899
3483.92463,670.84717
3483.92463,667.72352
3483.92463,666.9426
3483.92463,666.16169
3483.92463,671.62808
3483.92463,678.6563
3483.92463,677.87538
3483.92463,677.09447
3483.92463,682.56086
3483.92463,659.91439
3483.92463,660.6953
3483.92463,661.47621
3483.92463,662.25713
3483.92463,676.31356
3483.92463,684.9036
3483.92463,675.53264
3483.92463,658.35256
3483.92463,659.13348
3483.92463,680.99903
3483.92463,680.21812
3483.92463,681.77995
3483.92463,679.43721
3483.92463,670.06625
3486.13686,667.72352
3486.13686,666.9426
3486.13686,669.28534
3486.13686,684.9036
3486.13686,668.50443
3486.13686,686.46542
3486.13686,687.24634
3486.13686,666.16169
3486.13686,663.03804
3486.13686,677.87538
3486.13686,677.09447
3486.13686,678.6563
3486.13686,679.43721
3486.13686,680.21812
3486.13686,680.99903
3486.13686,682.56086
3486.13686,675.53264
3486.13686,674.75173
3486.13686,673.97082
3486.13686,676.31356
3486.13686,671.62808
3486.13686,670.84717
3486.13686,673.18991
3486.13686,683.34177
3486.13686,684.12269
3486.13686,663.81895
3486.13686,685.68451
3486.13686,670.06625
3486.13686,681.77995
3488.3491,682.56086
3488.3491,664.59987
3488.3491,673.18991
3488.3491,676.31356
3488.3491,684.12269
3488.3491,683.34177
3488.3491,672.40899
3488.3491,677.09447
3488.3491,677.87538
3488.3491,678.6563
3488.3491,679.43721
3488.3491,680.21812
3488.3491,684.9036
3488.3491,685.68451
3488.3491,665.38078
3488.3491,686.46542
3488.3491,674.75173
3488.3491,687.24634
3488.3491,673.97082
3488.3491,681.77995
3488.3491,680.99903
3488.3491,688.02725
3488.3491,675.53264
3490.56134,684.9036
3490.56134,685.68451
3490.56134,688.02725
3490.56134,687.24634
3490.56134,682.56086
3490.56134,683.34177
3490.56134,686.46542
3490.56134,684.12269
3492.77357,683.34177
3492.77357,688.02725
3492.77357,684.12269
3494.98581,688.02725
3497.19804,688.02725
3499.41028,688.02725
3499.41028,688.80816
3499.41028,689.58907
3499.41028,694.27455
3499.41028,693.49364
3501.62251,691.1509
3501.62251,692.71273
3501.62251,690.36999
3503.83475,691.1509
3503.83475,691.93181
3503.83475,690.36999
3503.83475,689.58907
3503.83475,692.71273
3503.83475,688.80816
3506.04698,688.02725
3508.25922,687.24634
3510.47146,686.46542
3512.68369,685.68451
3512.68369,684.9036
3512.68369,684.12269
3514.89593,683.34177
3514.89593,682.56086
3514.89593,681.77995
3517.10816,680.99903
3519.3204,680.21812
3519.3204,679.43721
3521.53263,678.6563
3523.74487,677.87538
3525.95711,677.09447
3525.95711,676.31356
3525.95711,671.62808
3525.95711,672.40899
3525.95711,670.84717
3525.95711,673.97082
3525.95711,674.75173
3525.95711,675.53264
3528.16934,668.50443
3528.16934,673.18991
3528.16934,670.06625
3528.16934,669.28534
3530.38158,666.9426
3530.38158,667.72352
3530.38158,664.59987
3530.38158,666.16169
3530.38158,665.38078
3532.59381,659.91439
3532.59381,663.81895
3532.59381,663.03804
3532.59381,662.25713
3532.59381,661.47621
3532.59381,658.35256
3532.59381,659.13348
3534.80605,655.22891
3534.80605,627.11605
3534.80605,657.57165
3534.80605,628.67788
3534.80605,653.66709
3534.80605,660.6953
3534.80605,656.79074
3534.80605,654.448
3537.01828,626.33514
3537.01828,656.00982
3537.01828,629.45879
3537.01828,627.89696
3537.01828,652.88617
3537.01828,650.54344
3539.23052,639.61066
3539.23052,638.82974
3539.23052,638.04883
3539.23052,634.92518
3539.23052,630.2397
3539.23052,652.10526
3539.23052,651.32435
3539.23052,635.70609
3539.23052,636.487
3539.23052,625.55423
3539.23052,649.76252
3539.23052,648.98161
3539.23052,634.14427
3539.23052,640.39157
3541.44276,637.26792
3541.44276,647.41978
3541.44276,648.2007
3541.44276,633.36335
3541.44276,646.63887
3541.44276,645.85796
3541.44276,645.07705
3541.44276,641.95339
3541.44276,642.73431
3541.44276,641.17248
3541.44276,631.02062
3541.44276,643.51522
3541.44276,624.77331
3543.65499,631.80153
3543.65499,632.58244
3543.65499,623.9924
3543.65499,619.30692
3543.65499,616.18327
3543.65499,616.96419
3543.65499,618.52601
3543.65499,644.29613
3545.86723,621.64966
3545.86723,617.7451
3545.86723,623.21149
3545.86723,615.40236
3545.86723,614.62145
3545.86723,622.43057
3545.86723,620.08784
3548.07946,620.86875
3548.07946,613.84053
3548.07946,613.05962
3548.07946,612.27871
3550.2917,611.4978
3550.2917,610.71688
3552.50393,609.93597
3554.71617,609.93597
3554.71617,609.15506
3554.71617,608.37414
3556.9284,608.37414
3556.9284,607.59323
3559.14064,607.59323
3559.14064,606.81232
3559.14064,606.03141
3561.35288,606.03141
3563.56511,604.46958
3563.56511,605.25049
3563.56511,606.03141
3565.77735,604.46958
3567.98958,604.46958
3570.20182,602.90775
3570.20182,604.46958
3570.20182,603.68867
3572.41405,602.90775
3574.62629,602.90775
3576.83853,602.90775
3579.05076,602.90775
3581.263,602.90775
3583.47523,602.90775
3585.68747,602.90775
3587.8997,602.90775
3590.11194,602.90775
3592.32417,601.34593
3592.32417,602.12684
3594.53641,601.34593
3596.74865,600.56502
3596.74865,601.34593
3598.96088,598.22228
3598.96088,599.00319
3598.96088,600.56502
3598.96088,599.7841
3601.17312,596.66045
3601.17312,597.44137
3601.17312,598.22228
3603.38535,596.66045
3605.59759,596.66045
3607.80982,596.66045
3610.02206,596.66045
3612.2343,597.44137
3614.44653,596.66045
3616.65877,595.87954
3618.871,595.87954
3621.08324,596.66045
3623.29547,597.44137
3625.50771,596.66045
3627.71995,595.87954
3629.93218,595.87954
3632.14442,595.87954
3634.35665,595.87954
3636.56889,595.87954
3638.78112,595.87954
3640.99336,595.09863
3643.20559,595.09863
3645.41783,595.09863
3647.63007,594.31771
3649.8423,594.31771
3652.05454,594.31771
3654.26677,594.31771
3656.47901,594.31771
3658.69124,594.31771
3660.90348,594.31771
3663.11572,593.5368
3665.32795,592.75589
3667.54019,592.75589
3669.75242,592.75589
3671.96466,592.75589
3674.17689,592.75589
3676.38913,592.75589
3678.60137,592.75589
3680.8136,592.75589
3683.02584,591.97498
3685.23807,592.75589
3687.45031,592.75589
3689.66254,592.75589
3691.87478,591.97498
3694.08701,591.97498
3696.29925,591.97498
3698.51149,591.97498
3700.72372,591.19406
3702.93596,591.19406
3705.14819,591.97498
3707.36043,591.97498
3709.57266,591.97498
3711.7849,591.19406
3713.99714,591.19406
3716.20937,591.19406
3718.42161,591.19406
3720.63384,591.19406
3722.84608,591.19406
3725.05831,590.41315
3727.27055,591.19406
3729.48278,591.19406
3731.69502,591.19406
3733.90726,591.19406
3736.11949,591.19406
3738.33173,590.41315
3740.54396,590.41315
3742.7562,590.41315
3744.96843,590.41315
3747.18067,590.41315
3749.39291,589.63224
3751.60514,590.41315
3753.81738,590.41315
3756.02961,590.41315
3758.24185,590.41315
3760.45408,589.63224
3762.66632,589.63224
3764.87856,589.63224
3767.09079,589.63224
3769.30303,589.63224
3771.51526,589.63224
3773.7275,589.63224
3775.93973,589.63224
3778.15197,589.63224
3780.3642,588.85132
3782.57644,588.07041
3784.78868,587.2895
3787.00091,586.50859
3789.21315,585.72767
3791.42538,584.94676
3793.63762,584.16585
3795.84985,584.16585
3798.06209,584.16585
3800.27433,584.16585
3802.48656,584.16585
3804.6988,584.16585
3806.91103,584.16585
3809.12327,584.16585
3811.3355,584.16585
3813.54774,584.16585
3815.75998,584.16585
3817.97221,584.16585
3820.18445,584.16585
3822.39668,584.16585
3824.60892,584.16585
3826.82115,584.16585
3829.03339,584.16585
3831.24562,584.16585
3833.45786,584.16585
3835.6701,584.16585
3837.88233,584.16585
3840.09457,584.16585
3842.3068,584.16585
3844.51904,584.16585
3846.73127,584.16585
3848.94351,584.16585
3851.15575,584.16585
3853.36798,584.16585
3855.58022,584.16585
3857.79245,584.16585
3860.00469,584.16585
3862.21692,584.94676
3864.42916,584.94676
3866.64139,584.94676
3868.85363,584.94676
3871.06587,584.94676
3873.2781,584.94676
3875.49034,584.94676
3877.70257,584.94676
3879.91481,585.72767
3882.12704,586.50859
3884.33928,587.2895
3886.55152,588.07041
3888.76375,588.85132
3890.97599,589.63224
3893.18822,589.63224
3895.40046,589.63224
3897.61269,589.63224
3899.82493,588.85132
3902.03717,588.07041
3904.2494,587.2895
3906.46164,586.50859
3908.67387,587.2895
3910.88611,588.07041
3913.09834,588.85132
3915.31058,589.63224
3917.52281,589.63224
3919.73505,589.63224
3921.94729,589.63224
3924.15952,588.85132
3926.37176,588.85132
3928.58399,589.63224
3930.79623,589.63224
3933.00846,589.63224
3935.2207,589.63224
3937.43294,589.63224
3939.64517,588.85132
3941.85741,588.07041
3944.06964,587.2895
3946.28188,586.50859
3948.49411,585.72767
3950.70635,586.50859
3952.91858,585.72767
3955.13082,585.72767
3957.34306,585.72767
3959.55529,586.50859
3961.76753,587.2895
3963.97976,586.50859
3966.192,585.72767
3968.40423,585.72767
3970.61647,586.50859
3972.82871,587.2895
3975.04094,588.07041
3977.25318,588.85132
