Raman Shift,Intensity
214.3785040343428,-225.847
224.78145843945092,94.541
235.01908334044856,-55.149
245.41130867789616,133.933
255.63837774522108,-299.379
265.8602158678186,131.307
276.23642015571386,89.288
286.44772684514464,89.288
296.8132434111685,115.55
307.0140349346475,-52.523
317.209615658554,-76.158
327.399989574551,-99.793
337.7442627077253,-160.194
347.9241537664129,-18.383
358.09885002992814,52.523
368.2683554736213,238.978
378.5914504125685,-55.149
388.7505051753542,21.009
398.90438108190574,136.559
409.0530820913264,183.829
419.196612158652,28.887
429.3349752349313,99.793
439.626465572117,31.514
449.75442592354375,110.297
459.8772311743669,262.613
469.994885259468,191.708
480.1073921097559,165.446
490.2147556521086,118.176
500.31697980943136,378.163
510.41406850063504,231.1
520.5060256406359,244.23
530.5928551403995,351.902
540.6745609068894,181.203
550.7511468431039,359.78
560.8226168481124,393.92
570.888974816975,228.473
580.9502246408374,154.942
590.8492821665859,215.343
600.9004070215597,323.014
610.9464353206786,341.397
620.9873709393651,341.397
631.0232177491416,695.925
641.0539796175653,856.119
650.9230482019848,1307.813
660.9437310766662,1087.218
670.9593405290361,349.275
680.9698804110958,446.442
690.8190579752118,288.874
700.8195493193562,296.753
710.8149825658329,341.397
720.805361551138,246.856
730.6347081696804,317.762
740.6150689503047,257.361
750.4345613154874,231.1
760.404918953056,323.014
770.3702413346182,323.014
780.174941402227,309.883
790.1302832356378,315.136
799.925166080895,288.874
809.8705423523497,435.938
819.6556227125038,370.284
829.5910483782136,273.118
839.3663409610526,168.072
849.2918309472952,212.717
859.0573504311833,346.649
868.972919634427,141.811
878.7286806683987,-225.847
888.6343439553166,338.771
898.3803611591502,265.239
908.12155022542,399.172
918.0124213310264,186.455
927.743888384779,254.735
937.4705381077074,207.464
947.3466501411676,228.473
957.0635996041163,365.032
966.7757425107702,428.059
976.6371284824854,333.519
986.3395928168538,152.316
996.0372613373548,609.262
1005.7301375988682,530.478
1015.5719657306544,806.222
1025.255192198514,716.934
1034.9336371072422,659.159
1044.6073039976543,254.735
1054.2761964070742,299.379
1063.9403178693246,438.564
1073.5996719147442,522.6
1083.4074711432768,346.649
1093.057225399156,417.555
1102.70222286418,664.411
1112.3424670547538,412.303
1121.9779614837898,265.239
1131.6087096607444,375.537
1141.2347150916105,267.865
1150.855981278939,449.068
1160.4725117218331,-7.878
1170.0843099159465,309.883
1179.6913793534914,535.731
1189.293723523253,157.568
1198.739039559725,165.446
1208.3320185130287,178.577
1217.9202825891407,273.118
1227.5038352631818,257.361
1237.0826800068826,97.167
1246.6568202885535,393.92
1256.226259573108,131.307
1265.639216696829,207.464
1275.1993388504195,49.896
1284.7547703264208,186.455
1294.3055145761757,207.464
1303.7000868433097,-131.307
1313.241541245312,212.717
1322.778318700337,393.92
1332.310422646282,-102.419
1341.686663866676,73.532
1351.2095051416618,170.699
1360.727683146746,283.622
1370.0902294598782,186.455
1379.5991650801443,330.892
1388.9526223370776,39.392
1398.4523290278594,207.464
1407.7967104575073,165.446
1417.287201648047,141.811
1426.7730533080105,588.253
1436.1038095471376,-254.735
1445.5804658554116,73.532
1454.9021792800197,183.829
1464.369653600741,131.307
1473.6823373500883,99.793
1482.9905472474493,215.343
1492.444310209452,173.325
1501.7435100404182,246.856
1511.1881242589734,199.586
1520.4783270994303,165.446
1529.764072276041,84.036
1539.1950247490097,225.847
1548.4717924494323,170.699
1557.7441121511074,396.546
1567.1614324998736,359.78
1576.4247941832873,86.662
1585.6837175051332,288.874
1594.9382056544855,278.37
1604.3374199708342,225.847
1613.5829759239496,170.699
1622.8241063047317,259.987
1632.0608142900164,346.649
1641.2931030535765,265.239
1650.6697762525291,63.027
1659.8931649322622,44.644
1669.1121439444323,123.428
1678.3267164506542,204.838
1687.53688560953,-18.383
1696.7426545766284,585.627
1705.9440265045123,-21.009
1715.1410045427183,65.653
1724.3335918377925,228.473
1733.5217915332687,133.933
1742.705606769683,123.428
1751.8850406845886,31.514
1761.0600964125188,70.906
1770.230777085024,86.662
1779.397085830693,139.185
1788.55902577511,257.361
1797.7166000408906,223.221
1806.8698117476447,2.626
1816.0186640120735,-296.753
1825.163159947857,141.811
1834.1559155330324,2.626
1843.29177827917,123.428
1852.4232939699289,49.896
1861.550465707216,7.878
1870.673296589972,191.708
1879.644751645923,-149.689
1888.758979994156,91.915
1897.8688767172423,144.437
1906.974444902422,196.96
1915.9289277003045,118.176
1925.025917750907,249.482
1934.118588458099,154.942
1943.060390766601,7.878
1952.144501554074,39.392
1961.2243021666216,162.82
1970.153450902042,320.388
1979.224709758193,202.212
1988.1454604369865,-13.131
1997.208189584475,36.766
2006.120554048888,168.072
2015.1747655127983,246.856
2024.0787555828572,241.604
2033.12446136566,154.942
2042.0200888391555,212.717
2051.057300920809,162.82
2059.9445775734057,141.811
2068.9733079113576,-49.896
2077.852245496608,136.559
2086.8725060258803,89.288
2095.743116275291,123.428
2104.6096010526526,170.699
2113.6172135316083,275.744
2122.4753884816528,325.64
2131.329446630596,299.379
2140.324437642892,160.194
2149.170203423979,-65.653
2158.011861050589,91.915
2166.994257105456,210.09
2175.8276397748195,49.896
2184.656922912145,168.072
2193.48210937062,120.802
2202.303202000803,47.27
2211.2647105948345,118.176
2220.077557114586,78.784
2228.886318388424,60.401
2237.6909972563008,204.838
2246.4915965555265,189.081
2255.2881191208,73.532
2264.0805677841927,126.054
2272.8689453751285,102.419
2281.6532547204406,309.883
2290.5774032157133,-28.887
2299.353517963282,118.176
2308.125572976198,-39.392
2316.893571070781,112.924
2325.6575150607823,204.838
2334.273835606975,173.325
2343.029746164546,317.762
2351.781610997117,112.924
2360.5294329081007,191.708
2369.273214698267,-89.288
2378.0129591658333,160.194
2386.7486691064114,154.942
2395.48034731306,152.316
2404.2079965762314,349.275
2412.788641914361,210.09
2421.5083075861257,7.878
2430.2239526247795,178.577
2438.9355798105607,39.392
2447.64319192111,110.297
2456.204142101211,194.334
2464.9037980916983,141.811
2473.5994472792227,86.662
2482.148638712344,112.924
2490.836348166158,15.757
2499.5200590665554,194.334
2508.0575159626023,141.811
2516.7333034706826,73.532
2525.405100652257,0.0
2533.930847154741,162.82
2542.5947372405863,196.96
2551.112711590584,241.604
2559.768705390503,94.541
2568.2789182109263,186.455
2576.927026515033,231.1
2585.5711635713087,246.856
2594.069721988235,133.933
2602.5644435408976,28.887
2611.196813145194,160.194
2619.683804921093,-44.644
2628.3083212822166,-7.878
2636.7875938271245,189.081
2645.404267656864,60.401
2653.875831497382,-204.838
2662.343576738021,175.951
2670.948539131641,99.793
2679.408591378582,338.771
2687.8648328054915,107.671
2696.4581076233444,246.856
2704.906671724595,102.419
2713.351432764532,157.568
2721.792393310454,118.176
2730.370143142005,-5.252
2738.8034471581705,55.149
2747.232958411034,115.55
2755.658679458633,120.802
2764.220946338093,175.951
2772.639031576786,44.644
2781.053334313052,97.167
2789.463857095703,126.054
2797.8706024712737,241.604
2806.2735729839987,120.802
2814.672771175843,165.446
2823.0681995864725,99.793
2831.459860753297,238.978
2839.847757211428,112.924
2848.231891493713,162.82
2856.612266130724,217.969
2864.988883650767,0.0
2873.3617465798743,60.401
2881.7308574418275,84.036
2890.096218758139,212.717
2898.457833048058,91.915
2906.815702828586,202.212
2915.169830614461,34.14
2923.5202189181878,126.054
2931.8668702499926,252.109
2940.209787117892,267.865
2948.41001618022,194.334
2956.7455337723804,199.586
2965.077324369493,86.662
2973.405390470638,212.717
2981.7297345726547,99.793
2989.9117125592966,196.96
2998.2286820744484,383.415
3006.5419370261297,131.307
3014.8514799023105,149.689
3023.0189130185245,147.063
3031.3211009634906,81.41
3039.619584242202,204.838
3047.776149306213,120.802
3056.067292329164,-21.009
3064.2166442633534,259.987
3072.500456765243,262.613
3080.780576892153,73.532
3088.919096831967,189.081
3097.1919010483834,265.239
3105.3232317767324,228.473
3113.588729774354,107.671
3121.712880813,254.735
3129.9710822664056,223.221
3138.0880631202745,189.081
3146.338977686973,186.455
3154.448797844241,144.437
3162.692435164703,317.762
3170.7951040967964,291.501
3178.894230970407,344.023
3187.127000956163,231.1
3195.218990740796,120.802
3203.3074454664093,220.595
3211.5293695924192,131.307
3219.610701328027,160.194
3227.688504985643,330.892
3235.899604670318,15.757
3243.9702993997853,186.455
3252.03747301393,241.604
3260.1011278165533,315.136
3268.297848330192,173.325
3276.354412870096,294.127
3284.407465536773,315.136
3292.4570086259846,131.307
3300.5030444314834,217.969
3308.545575245,304.631
3316.720827896272,-26.261
3324.756296283769,160.194
3332.788266581294,217.969
3340.816741072602,228.473
3348.8417220394404,391.294
3356.8632117615925,443.816
3364.8812125168406,196.96
3372.895726580995,401.798
3380.906756227865,367.658
3388.91430372934,286.248
3396.918371355256,386.041
3404.9189613735507,330.892
3412.9160760501472,265.239
3420.909717649003,433.312
3428.8998884321263,252.109
3436.886590659553,199.586
3444.734546370892,105.045
3452.714376952972,173.325
3460.690745709508,183.829
3468.663654892749,259.987
3476.633106752961,141.811
3484.5991035384795,191.708
3492.4267178764712,128.68
3500.385869715596,99.793
3508.341573175334,65.653
3516.293830496281,157.568
3524.1079469444667,76.158
3532.0533770164475,181.203
3539.9953676218797,7.878
3547.7993978646555,133.933
3555.734574435446,133.933
3563.666318194715,294.127
3571.460281747888,47.27
3579.385224652753,173.325
3587.30674138396,294.127
3595.090657713052,223.221
3603.00538673612,194.334
3610.782634691175,105.045
3618.6905847266535,160.194
3626.461172873067,160.194
3634.362352626544,223.221
3642.1262895150494,21.009
3650.020707677235,144.437
3657.778001843908,44.644
3665.665667090652,115.55
3673.416327056992,131.307
3681.163701429177,-70.906
3689.041282322214,215.343
3696.782035212709,189.081
3704.6528847781447,215.343
3712.3870246721344,70.906
3720.117889469839,68.279
3727.845481251112,139.185
3735.702951367959,425.433
3743.4239470074463,136.559
3751.141675895298,223.221
3758.989119491133,178.577
3766.700264858686,47.27
3774.408149723422,136.559
3782.1127761528696,152.316
3789.814146212797,39.392
3797.644959575024,-175.951
3805.339767031168,118.176
3813.03132434014,141.811
3820.7196335607214,249.482
3828.404696749953,196.96
3836.086515963114,126.054
3843.76509325378,391.294
3851.4404306737633,210.09
3859.112530273167,120.802
3866.7813941003615,170.699
3874.4470242019815,63.027
3882.109422622947,170.699
3889.7685914064414,86.662
3897.4245325939337,52.523
3905.0772482251705,154.942
3912.7267403381848,44.644
3920.373010969284,102.419
3928.016062153074,175.951
3935.655895922435,42.018
3943.292514308545,593.506
3950.925919340858,86.662
3958.424585178429,126.054
3966.051624900327,44.644
3973.675457311714,-76.158
3981.296084435249,-73.532
3988.913508291902,-31.514
3996.396478310664,-70.906
4004.007556831755,259.987
4011.615438103967,-44.644
4019.220124141517,31.514
4026.690583777876,-34.14
4034.288940385857,136.559
4041.8841077570687,223.221
4049.3452186808136,86.662
4056.934068499933,123.428
4064.519735065173,189.081
4071.971514814119,89.288
4079.550875675057,133.933
4086.996462302253,-126.054
4094.5695253181984,228.473
4102.008926541021,15.757
4109.575699558212,70.906
4117.008923081237,278.37
4124.569413932906,241.604
4131.996467447912,70.906
4139.550683954272,97.167
4146.971575140262,105.045
4154.519525108568,115.55
4161.93426163181,139.185
4169.475952856366,-131.307
4228.011654085007,-112.924
4235.396210255021,102.419
4242.907210725418,115.55
4250.415076793586,-105.045
4257.7904449892885,23.635
4265.292102093408,105.045
4272.790630641473,68.279
4280.156827999919,131.307
4287.649159161061,238.978
4295.138367597785,233.726
4302.4954112134365,-39.392
4309.978433811593,147.063
4317.329402006981,112.924
4324.8062464273535,107.671
4332.151146724958,-10.505
4339.621820615692,244.23
4346.960660525576,76.158
4354.425171522191,102.419
4361.757958542046,91.915
4369.216314267462,2.626
4376.543055882612,-32.181
4383.9952639471885,2.658
4391.315967630617,79.12
4398.762035632179,169.181
4406.07670884455,244.826
4413.516644368407,278.032
4420.825294558097,240.779
4428.130962180556,105.045
4435.561739780205,-10.505
4442.861395497304,249.482
4450.1580741507205,-13.131
4457.579710724684,105.045
4464.870388562711,170.699
4472.158094827057,325.64
4479.570607232323,60.401
4486.852323743988,10.505
4494.131074158497,270.491
4501.534479210626,320.388
4508.807250907994,23.635
4516.077061971264,39.392
4523.3439142079005,-10.505
4530.735219799091,141.811
4537.996107969229,-112.924
4545.254042757973,-31.514
4552.509025966887,60.401
4559.888261734326,89.288
4567.13729547953,204.838
4574.383383072374,154.942
4581.626526308552,183.829
4588.866726982291,228.473
4596.103986886381,136.559
4603.338307812148,91.915
4610.69653172473,31.514
4617.92492857972,28.887
4625.150391852971,70.906
4632.372923329975,63.027
4639.592524794789,118.176
4646.809198030001,170.699
4654.022944816745,39.392
4661.233766934747,225.847
4668.441666162253,225.847
4675.646644276094,165.446
4682.8487030516335,-15.757
4690.047844262837,131.307
4697.244069682201,131.307
4704.437381080781,168.072
4711.627780228235,126.054
4718.815268892759,162.82
4725.999848841122,157.568
4733.181521838655,123.428
4740.3602896492885,-26.261
4747.536154035501,107.671
4754.583300303697,44.644
4761.753413983191,10.505
4768.9206294863325,78.784
4776.084948569973,173.325
4783.246372989488,181.203
4790.404904498872,191.708
4797.435032206777,39.392
4804.5878338284165,110.297
4811.73774776268,215.343
4818.884775757928,-39.392
4826.028919561082,147.063
4833.044920461813,31.514
4840.183351639585,89.288
4847.3189038270575,7.878
4854.451578765569,120.802
4861.456318765864,199.586
4868.58329482688,73.532
4875.707398824052,86.662
4882.703723295803,149.689
4889.822138682386,173.325
4896.937687177771,-152.316
4903.925611277555,5.252
4911.035481404608,81.41
4918.142489800703,39.392
4925.122028648751,-44.644
4932.223368894192,186.455
4939.197342363797,365.032
4946.293021236786,-10.505
4953.385846941688,115.55
4960.35146024984,36.766
4967.43863475923,115.55
4974.398699333346,23.635
4981.480229398396,2.626
4988.43475186592,42.018
4995.510644227063,84.036
5002.459631204903,-123.428
5009.529892591847,52.523
5016.473350686378,55.149
5023.537987818112,259.987
5030.475923625207,1192.263
5037.534943210041,-131.307
5044.467363315067,26.261
5051.397052412052,133.933
5058.447683028528,-267.865
5065.371866252855,65.653
5072.416896017057,126.054
5079.335579928018,204.838
5086.251540943114,139.185
5093.288206657562,-123.428
5100.198678149784,228.473
5107.106431592307,191.708
5114.134748143202,78.784
5121.037021830118,81.41
5127.93658230202,-7.878
5134.833431158368,220.595
5141.85065500065,115.55
5148.742037069234,26.261
5155.630712341699,76.158
5162.516682412504,70.906
5169.522839786696,-110.297
5176.403355996677,110.297
5183.281171809234,115.55
5190.156288813778,-57.775
5197.028708598496,36.766
5204.021081907653,70.906
5210.888063918697,21.009
5217.752353495271,0.0
5224.613952220541,78.784
5231.472861676462,252.109
5238.329083443728,91.915
5245.182619101804,-26.261
5252.033470228904,118.176
5258.881638402017,68.279
5265.727125196914,131.307
5272.569932188097,115.55
5279.532181775125,144.437
5286.369586094326,18.383
5293.204315354014,120.802
5300.036371123795,112.924
5306.865754971979,39.392
5313.692468465706,160.194
5320.516513170878,136.559
5327.216103720151,280.996
5334.034863128356,5.252
5340.850958410447,13.131
5347.664391127459,225.847
5354.475162839211,110.297
5361.283275104273,278.37
5368.088729480027,57.775
5374.891527522632,52.523
5381.6916707870405,-23.635
5388.489160826968,13.131
5395.162686039381,65.653
5401.954921596684,-13.131
5408.744508555763,99.793
5415.531448465517,60.401
5422.31574287366,244.23
5428.976315601984,26.261
5435.7553708175255,136.559
5442.531785139763,217.969
5449.305560111599,139.185
5456.076697274744,115.55
5462.724355191152,70.906
5469.490268392445,42.018
5476.253548375513,28.887
5482.893493883399,178.577
5489.651558992991,144.437
5496.406995464167,0.0
5503.039241977291,-7.878
5509.789472642318,102.419
5516.5370792381145,178.577
5523.161640139158,47.27
5529.904049975114,102.419
5536.643840300443,139.185
5543.260728941095,-110.297
5549.995331531944,-23.635
5556.607128017575,-154.942
5563.336548861262,147.063
5569.943259067753,84.036
5576.667504142417,76.158
5583.269133936614,231.1
5589.988209211173,23.635
5596.58476445092,118.176
5603.298675885118,28.887
5609.890162419251,157.568
5616.598915963696,157.568
5623.185339632037,73.532
5629.888941228186,-5.252
5636.470307861637,246.856
5643.16876344182,36.766
5649.745078862296,-15.757
5656.438394349752,105.045
5663.009664370256,133.933
5669.578436568787,84.036
5676.264076103718,65.653
5682.827811578958,36.766
5689.3890535265455,49.896
5696.067030305661,-7.878
5702.623244186747,139.185
5709.176968824671,168.072
5715.847296014435,49.896
5722.39600122282,162.82
5728.942221462719,126.054
5735.4859581482815,2.626
5742.146121627004,28.887
5748.684850350968,52.523
5755.221099782248,42.018
5761.754871330697,223.221
5768.404894310675,-55.149
5774.933669330552,210.09
5781.459970716278,110.297
5787.983799873429,21.009
5794.505158206499,70.906
5801.142549523138,133.933
5807.658925557145,52.523
5814.172834999641,-91.915
5820.684279250832,244.23
5827.193259709879,65.653
5833.699777774898,10.505
5840.203834842934,-5.252
5846.7054323099655,68.279
5853.204571570954,28.887
5859.701254019747,118.176
5866.195481049195,-31.514
5872.687254051074,569.87
5879.176574416102,-118.176
5885.663443533944,110.297
5892.14786279323,351.902
5898.629833581537,26.261
5905.109357285379,189.081
5911.586435290243,-175.951
5918.061068980562,-7.878
5924.533259739736,97.167
5931.003008950094,10.505
5937.470317992949,18.383
5943.935188248557,60.401
5950.397621096134,173.325
5956.857617913869,-23.635
5963.315180078898,112.924
5969.7703089673305,-13.131
5976.105705888956,13.131
5982.556016527509,28.887
5989.003897986593,91.915
5995.449351638199,-144.437
6001.8923788532775,99.793
6008.215900781644,-28.887
6014.654123287393,173.325
6021.089923438405,-42.018
6027.523302601519,97.167
6033.954262142564,-15.757
6040.265942433929,86.662
6046.692110755517,131.307
6053.115863521547,44.644
6059.420472023492,191.708
6065.839441620141,112.924
6072.255999718647,86.662
6078.553548309683,81.41
6084.965331270854,128.68
6091.374706782226,202.212
6097.665207314269,102.419
6104.06981570238,-15.757
6110.472020679961,181.203
6116.755484978421,47.27
6123.152930828903,-36.766
6129.431725134898,84.036
6135.824417162912,162.82
6142.098546680769,170.699
6148.486490183052,165.446
6154.872039648391,160.194
6161.139160374798,49.896
6167.519969269015,118.176
6173.782438208022,89.288
6180.158511808193,55.149
6186.416334137088,220.595
6192.787677712448,170.699
6199.040858600842,191.708
6205.291741972564,21.009
6211.656022022646,170.699
6217.902271670246,39.392
6224.261834810408,157.568
6230.503455884398,36.766
6236.742785809074,126.054
6243.095304999864,217.969
6249.330014038809,-21.009
6255.677829386121,39.392
6261.907922670827,154.942
6268.1357311500615,63.027
6274.476522051649,154.942
6280.699722436162,7.878
6286.920641805642,115.55
6293.139281413962,270.491
6299.470738832184,47.27
6305.684780516531,-44.644
6311.896546218988,23.635
6318.106037189755,84.036
6324.428181717434,152.316
6330.633084905065,-47.27
6336.835717129172,5.252
6343.036079636258,84.036
6349.234173671932,157.568
6355.544716640681,110.297
6361.738235515753,60.401
6367.929489673777,126.054
6374.118480356665,-2.626
6380.305208805476,94.541
6386.489676260331,-10.505
6392.671883960451,94.541
6398.851833144166,73.532
6405.143905470883,18.383
6411.319299566196,112.924
6417.492438877496,175.951
6423.663324639478,-10.505
6429.831958085924,126.054
6435.998340449718,112.924
6442.162472962846,-34.14
6448.324356856407,107.671
6454.483993360576,154.942
6460.641383704664,-21.009
6466.79652911704,136.559
6472.949430825232,34.14
6479.100090055821,76.158
6485.248508034543,294.127
6491.280888225534,102.419
6497.424868822251,162.82
6503.5666118162335,-23.635
6509.706118429633,-15.757
6515.843389883739,60.401
6521.978427398899,78.784
6528.111232194642,302.005
6534.241805489546,144.437
6540.256680928833,186.455
6546.382836142315,42.018
6552.506763482961,44.644
6558.628464165849,365.032
6564.747939405184,68.279
6570.751928194237,196.96
6576.866997341494,225.847
6582.979844660076,157.568
6589.090471360658,194.334
6595.0857801617385,60.401
6601.192010321647,73.532
6607.296023467985,112.924
6613.39782080795,31.514
6619.384468430493,21.009
6625.481878753591,154.942
6631.577076864334,178.577
6637.5572509579,57.775
6643.64806916556,-273.118
6649.623946782151,70.906
6655.71038980603,86.662
6661.794626582923,-2.626
6667.764048126817,147.063
6673.843916808139,330.892
6679.809053455574,-99.793
6685.884558743659,47.27
6691.957863728712,99.793
6697.916561697035,-21.009
6703.985510351609,136.559
6709.939934962422,147.063
6716.004531971987,210.09
6721.954687820689,97.167
6728.014937863976,-47.27
6733.960829539363,49.896
6739.904610751524,102.419
6745.95836937274,196.96
6751.897893261092,141.811
6757.947316561804,-68.279
6763.8825876987685,78.784
6769.927680334353,0.0
6775.858703285812,-2.626
6781.787623684751,63.027
6787.826249230238,39.392
6793.750928258974,15.757
6799.673508107371,207.464
6805.705676935038,175.951
6811.624022213946,181.203
6817.540271677499,147.063
6823.5659941374615,-362.406
6829.478015817709,126.054
6835.387945040406,118.176
6841.407231460638,183.829
6847.312939671727,107.671
6853.216558775894,68.279
6859.118089881435,18.383
6865.017534095896,57.775
6871.026143398485,238.978
6876.921377827312,144.437
6882.814528703813,10.505
6888.705597132364,168.072
6894.594584216582,123.428
6900.592544785228,189.081
6906.477333270021,-42.018
6912.360043737404,-102.419
6918.240677287846,-115.55
6924.119235021055,115.55
6929.995718035963,34.14
6935.870127430717,212.717
6941.742464302697,175.951
6947.6127297485,175.951
6953.480924863958,144.437
6959.347050744116,181.203
6965.21110848328,280.996
6971.073099174937,57.775
6976.93302391185,-13.131
6982.79088378598,191.708
6988.64667988853,202.212
6994.500413309928,91.915
7000.35208513985,375.537
7006.201696467178,31.514
7012.049248380063,-286.248
7017.894741965851,-81.41
7023.738178311156,-31.514
7029.579558501813,44.644
7035.418883622879,-23.635
7041.2561547586665,252.109
7047.091372992727,65.653
7052.924539407839,170.699
7058.645653010426,31.514
7064.474757695687,123.428
7070.301813785409,196.96
7076.126822359336,76.158
7081.949784496486,49.896
7087.660891581778,149.689
7093.479802640664,-107.671
7099.296670474898,89.288
7105.111496160462,36.766
7110.814624476749,52.523
7116.625407570507,81.41
7122.434151718757,-63.027
7128.2408579944895,283.622
7133.936024250346,-7.878
7139.73869639702,215.343
7145.53933386541,168.072
7151.22854892195,112.924
7157.025158582874,323.014
7162.819736753059,165.446
7168.503009933542,170.699
7174.293566604632,55.149
7180.082094965896,144.437
7185.759435574095,139.185
7191.54394873148,204.838
7197.2173519438,-128.68
7202.997854073568,236.352
7208.667323984642,60.401
7214.443819257263,39.392
7220.109359956041,68.279
7225.881852536215,70.906
7231.54346810597,157.568
7237.311962152613,47.27
7242.969656670975,55.149
7248.734156337254,118.176
7254.387933876205,-28.887
7260.148443309525,139.185
7265.798307935409,123.428
7271.554831277448,78.784
7277.20078705097,44.644
7282.953328437674,154.942
7288.59537941395,-2.626
7294.235498085545,26.261
7299.982093204053,42.018
7305.618313131272,-44.644
7311.252603748333,81.41
7316.993261813666,23.635
7322.623659726734,120.802
7328.252131317968,126.054
7333.9868615261075,278.37
7339.611446441268,60.401
7345.234108016753,126.054
7350.962919544712,97.167
7356.581700459581,91.915
7362.198561010817,73.532
7367.813502182726,76.158
7373.426524958988,105.045
7379.145517410223,55.149
7384.7546694986595,-210.09
7390.361906157261,144.437
7395.967228366993,120.802
7401.570637108154,-2.626
7407.279835705631,-15.757
7412.879383697611,42.018
7418.477021176703,63.027
7424.072749120482,28.887
7429.666568505905,105.045
7435.258480309247,42.018
7440.848485506111,63.027
7446.436585071431,70.906
7452.022779979503,115.55
7457.607071203925,118.176
7463.296794702215,-2.626
7468.877244915177,68.279
7474.455794380043,10.505
7480.032444067743,181.203
7485.607194948596,34.14
7491.18004799222,94.541
7496.751004167574,73.532
7502.2129850032,70.906
7507.7801867781745,31.514
7513.345494569261,57.775
7518.908909342786,162.82
7524.470432064445,-5.252
7530.03006369928,-152.316
7535.587805211653,-68.279
7541.1436575652915,136.559
7546.697621723266,94.541
7552.249698647978,94.541
7557.693172648,133.933
7563.241514237732,157.568
7568.787971459049,57.775
7574.332545271769,126.054
7579.87523663506,-34.14
7585.416046507413,149.689
7590.848475703144,78.784
7596.385561603231,126.054
7601.920768865631,-115.55
7607.454098446255,49.896
7612.879194899509,126.054
7618.4088080453,94.541
7623.936546354853,49.896
7629.462410781522,18.383
7634.880189328982,-18.383
7640.402344837916,288.874
7645.9226293018255,21.009
7651.334937948188,-68.279
7656.851519109852,57.775
7662.260197498763,23.635
7667.773079083498,76.158
7673.284094334183,123.428
7678.687316594296,76.158
7684.194637864675,39.392
7689.7000956236625,133.933
7695.097870006797,131.307
7700.599639370841,31.514
7705.993798107356,60.401
7711.491882781789,118.176
7716.882429503323,52.523
7722.376833188511,118.176
7727.763771521855,57.775
7733.254497913214,5.252
7738.637831480286,315.136
7744.124884268305,13.131
7749.504616686187,-112.924
7754.987999556393,-5.252
7760.364134437317,149.689
7765.738489349154,112.924
7771.216392021717,18.383
7776.587154788423,217.969
7782.061396717661,-278.37
7787.428570939446,91.915
7792.793969640064,2.626
7798.262745065967,141.811
7803.624560595526,76.158
7808.984603262106,89.288
7814.447920368751,-26.261
7819.804385227417,23.635
7825.159079875983,65.653
7830.616946831127,-52.523
7835.968069024231,-81.41
7841.317423654822,110.297
7846.665011598543,31.514
7852.115636126822,-34.14
7857.459658723532,60.401
7862.801917273948,-60.401
7868.142412651388,21.009
7873.481145728587,0.0
7878.922746278997,126.054
7884.257922859626,15.757
7889.59133977185,63.027
7894.922997886111,-26.261
7900.252898072242,78.784
7905.581041199541,112.924
7910.907428136696,97.167
7916.336446752692,351.902
7921.65928952102,359.78
7926.980378718883,183.829
7932.29971521271,91.915
7937.617299868325,-86.662
7942.933133550996,89.288
7948.247217125423,160.194
7953.559551455743,-23.635
7958.870137405502,76.158
7964.178975837705,154.942
7969.486067614758,-39.392
7974.791413598527,141.811
7980.0950146503055,97.167
7985.396871630804,-15.757
7990.696985400187,265.239
7995.995356818043,44.644
8001.291986743403,120.802
8006.586876034729,126.054
8011.880025549901,-210.09
8017.067699705829,42.018
8022.357406311574,-7.878
8027.645375694708,-175.951
8032.931608710882,94.541
8038.216106215201,583.001
8043.498869062179,102.419
8048.779898105804,73.532
8053.955695240969,110.297
8059.233293192043,15.757
8064.509159881611,123.428
8069.783296161415,-7.878
8074.952338977277,186.455
8080.223050878609,-10.505
8085.492034905405,175.951
8090.759291907168,7.878
8095.921593616502,175.951
8101.185432936367,28.887
8106.447547759821,13.131
8111.604810570996,70.906
8116.863512715307,99.793
8122.120492886879,-204.838
8127.272724173963,-217.969
8132.526296659391,60.401
8137.778149690843,128.68
8142.925356813517,110.297
8148.173807142077,7.878
8153.4205405305,126.054
8158.562730834117,39.392
8163.806066493191,0.0
8168.944927307508,55.149
8174.184868536668,70.906
8179.32040309432,110.297
8184.55695318873,91.915
8189.689164718173,-15.757
8194.922326968728,115.55
8200.051218694258,44.644
8205.280996387602,36.766
8210.406571529322,49.896
8215.632967947844,-52.523
8220.7552297217,196.96
8225.978248143558,91.915
8231.097199761349,21.009
8236.316843460441,-60.401
8241.43248812982,-68.279
8246.546496881761,15.757
8251.76110130029,-112.924
8256.871807891675,31.514
8261.98088093357,65.653
8267.190453365733,86.662
8272.296229025691,81.41
8277.400373499535,-39.392
8282.604921225458,0.0
8287.705773086778,97.167
8292.804996120794,-170.699
8298.004526406577,-55.149
8303.100461588281,73.532
8308.194770296956,112.924
8313.28745331115,81.41
8318.48031600209,-131.307
8323.569717486189,-94.541
8328.657495624051,-15.757
8333.743651192239,13.131
8338.828184966831,47.27
8344.012739449463,81.41
8349.093999566121,-5.252
8354.17364022991,-60.401
8359.251662214898,36.766
8364.328066294685,10.505
8369.402853242376,115.55
8374.476023830553,31.514
8379.547578831349,-44.644
8384.718901354245,60.401
8389.787195221597,10.505
8394.853875830348,2.626
8399.91894395064,-102.419
8404.98240035212,10.505
8410.044245803958,-21.009
8415.104481074803,18.383
8420.163106932847,73.532
8425.220124145773,-2.626
8430.275533480788,-112.924
8435.32933570461,86.662
8440.381531583458,123.428
8445.432121883085,7.878
8450.48110736873,-84.036
8455.528488805172,2.626
8460.473367100913,-23.635
8465.51757477424,-65.653
8470.560180674485,157.568
8475.601185564497,-34.14
8480.64059020661,-5.252
8485.67839536271,-267.865
8490.714601794163,-115.55
8495.749210261878,417.555
8500.681576948675,136.559
8505.713023691114,-118.176
8510.742874734438,57.775
8515.771130837642,-49.896
8520.797792759218,-2.626
8525.722375497866,2.626
8530.745883175656,65.653
8535.7677989293,63.027
8540.788123515384,-7.878
8545.706498587671,63.027
8550.723674892208,-81.41
8555.739262280982,28.887
8560.652997083213,-18.383
8565.665440644778,28.887
8570.676297538128,28.887
8575.585398634048,21.009
8580.593116146138,44.644
8585.599249233324,-47.27
8590.503723174297,-97.167
8595.506721317797,49.896
8600.508137275468,-257.361
8605.40799060051,78.784
8610.406276043708,49.896
8615.303062904772,-31.514
8620.298220771765,149.689
8625.191944046568,94.541
8630.18397727198,97.167
8635.074639834631,154.942
8640.063551349394,-99.793
8644.951156070434,126.054
8649.936948801806,63.027
8654.821498548154,-149.689
8659.804175419777,44.644
8664.685673054784,-76.158
8669.665236986599,60.401
8674.543685370048,0.0
8679.520139278378,49.896
8684.395541266465,52.523
8689.2694364983,-18.383
8694.241246509358,-21.009
8699.112099609058,-36.766
8703.981448060618,-110.297
8708.948620671701,13.131
8713.81493124642,191.708
8718.779005433622,31.514
8723.642280973501,2.626
8728.504055374753,76.158
8733.364329332315,204.838
8738.32224658698,-13.131
8743.179491154478,49.896
8748.035237374625,-131.307
8752.889485940628,2.626
8757.8412577103,28.887
8762.692482517024,-23.635
8767.542211760752,-73.532
8772.39044613298,-196.96
8777.336083836857,21.009
8782.18130006664,-5.252
8787.02502351089,47.27
8791.867254859393,15.757
8796.707994801498,168.072
8801.547244026118,39.392
8806.385003221756,63.027
8811.319956958603,-49.896
8816.154707786565,78.784
8820.987970662514,-15.757
8825.819746273257,-94.541
8830.650035305174,49.896
8835.478838444196,-102.419
8840.306156375878,31.514
8845.131989785303,55.149
8849.956339357173,26.261
8854.779205775758,-194.334
8859.60058972489,49.896
8864.420491888006,36.766
8869.238912948098,-42.018
8874.055853587757,147.063
8878.871314489159,10.505
8883.685296334032,136.559
8888.497799803714,23.635
8893.308825579123,-2.626
8898.118374340735,-105.045
8902.926446768637,34.14
8907.634964476681,-233.726
8912.440116370435,-323.014
8917.243793954342,21.009
8922.045997906822,-196.96
8926.846728905857,-28.887
8931.645987629043,21.009
8936.443774753548,-252.109
8941.142221650607,65.653
8945.937097605834,-186.455
8950.73050397759,-13.131
8955.522441441404,-5.252
8960.215160665939,-21.009
8965.004192282166,-23.635
8969.791757000756,68.279
8974.577855495572,228.473
8979.26485751475,-63.027
8984.048055470721,-36.766
8988.829789208343,141.811
8993.51251749025,34.14
8998.291354655303,-10.505
9003.068729603765,7.878
9007.747189991118,94.541
9012.521672326067,-89.288
9017.294694442531,-42.018
9021.968892767374,-89.288
9026.739026222178,47.27
9031.41039612206,55.149
9036.17764353675,55.149
9040.943434050514,262.613
9045.610551571128,-7.878
9050.373459984672,47.27
9055.037755503963,-115.55
9059.797784430888,57.775
9064.45926050758,-407.05
9069.216412558366,60.401
9073.87507174812,110.297
9078.629349530078,-44.644
9083.285194385431,60.401
9088.036600502714,21.009
9092.689633573158,39.392
9097.438170626783,-15.757
9102.088394458704,-84.036
9106.73722909284,128.68
9111.481482183284,-149.689
9116.12751137963,-102.419
9120.868901881862,10.505
9125.512128179163,84.036
9130.153968412898,26.261
9134.891084617178,-107.671
9139.53012574118,52.523
9144.167782675046,-84.036
9148.9006303586,23.635
9153.535491965213,10.505
9158.168971251744,-65.653
9162.801068836525,-42.018
9167.528243916331,-13.131
9172.157551197888,123.428
9176.785478643267,-23.635
9181.412026869286,36.766
9186.13353953768,89.288
9190.757302472506,-15.757
9195.37968804908,13.131
9200.000696882766,73.532
9204.620329588544,55.149
9209.334785850184,-126.054
9213.951639506451,-210.09
9218.567118890363,-63.027
9223.181224615444,-5.252
9227.79395729483,-2.626
9232.40531754132,-393.92
9237.015305967328,2.626
9241.623923184923,-107.671
9246.23116980579,-7.878
9250.932987640888,36.766
9255.537466379788,204.838
9260.140576367572,-13.131
9264.742318214474,18.383
9269.342692530376,207.464
9273.941699924766,-94.541
9278.539341006806,-13.131
9283.135616385269,73.532
9287.730526668583,39.392
9292.324072464791,800.97
9296.91625438162,18.383
9301.411444872112,57.775
9306.00092923447,44.644
9310.589051525738,-107.671
9315.175812352172,-23.635
9319.761212319692,-63.027
9324.345252033823,-186.455
9328.927932099774,275.744
9333.509253122353,91.915
9338.08921570604,21.009
9342.572446701386,-42.018
9347.149722488744,-160.194
9351.7256416359,34.14
9356.300204745894,42.018
9360.873412421412,-63.027
9365.350032145325,63.027
9369.920558965528,-49.896
9374.489732144635,-13.131
9379.05755228394,97.167
9383.528899030936,120.802
9388.09404305015,-18.383
9392.657835818722,-89.288
9397.125240831178,-34.14
9401.6863610176,-91.915
9406.246131739394,5.252
9410.80455359534,165.446
9415.266701898625,-141.811
9419.822455888205,120.802
9424.281993052333,-241.604
9428.835081516963,-126.054
9433.38682407955,-196.96
9437.84243511156,91.915
9442.391515668474,18.383
9446.84452129656,70.906
9451.390942182352,5.252
9455.93602012123,94.541
9460.385108237591,10.505
9464.927530014324,-52.523
9469.374018445214,34.14
9473.913786387537,-170.699
9478.35767741084,55.149
9482.894793843763,-5.252
9487.33608973474,-120.802
9491.87055698055,257.361
9496.30926001177,-81.41
9500.74668109923,-63.027
9505.277192831463,76.158
9509.71202445114,110.297
9514.23989277796,112.924
9518.672137195834,194.334
9523.103102466685,-7.878
9527.62702390948,44.644
9532.05540536064,52.523
9536.57668916292,-118.176
9541.002489053764,-39.392
9545.42701258622,31.514
9549.850260312329,34.14
9554.36630345335,-110.297
9558.78697410632,-13.131
9563.206370618926,-55.149
9567.718482324255,-86.662
9572.13530512818,94.541
9576.550855454823,15.757
9580.965133854,5.252
9585.47202083257,-44.644
9589.883729992052,128.68
9594.294168883298,-23.635
9598.703338054846,-131.307
9603.111238054931,15.757
9607.611613766734,154.942
9612.016950092931,34.14
9616.421018902103,28.887
9620.823820741218,-86.662
9625.225356156909,-183.829
9629.625625695517,52.523
9634.02462990307,91.915
9638.422369325252,-115.55
9642.81884450748,-139.185
9647.21405599481,-215.343
9651.701478874824,-39.392
9656.094137748323,141.811
9660.485534571855,57.775
9664.875669889248,154.942
9669.264544244,186.455
9673.65215817932,0.0
9678.03851223808,81.41
9682.423606962846,147.063
9686.807442895892,-42.018
9691.19002057915,18.383
9695.478134071804,112.924
9699.858223622705,49.896
9704.23705653629,-55.149
9708.614633353289,-178.577
9712.990954614088,-76.158
9717.36602085878,18.383
9721.739832627154,94.541
9726.112390458671,202.212
9730.483694892511,47.27
9734.760779687776,102.419
9739.129605581998,-31.514
9743.497179682729,336.145
9747.863502527893,133.933
9752.228574655115,60.401
9756.499562339395,94.541
9760.862161224974,47.27
9765.223510992222,34.14
9769.583612177565,-13.131
9773.849736751828,-5.252
9778.207368918504,5.252
9782.563754099236,-99.793
9786.918892829211,86.662
9791.18016259473,275.744
9795.532836519418,-149.689
9799.884265585692,-31.514
9804.14190615754,13.131
9808.490873566669,36.766
9812.83859770701,43.583
9817.09261371952,36.734
9821.437879345483,22.314
9825.689490172908,6.413
9830.032299369228,-4.874
9834.373867936378,-5.452
9838.621861899856,10.776
9842.960977171238,49.896
9847.206571054325,81.41
9851.543235108787,10.505
9855.786430944943,34.14
9860.12064585897,36.766
9864.361445679362,-28.887
9868.693213527116,86.662
9872.931619360628,15.757
9877.26094221391,-84.036
9881.49695608711,-118.176
9885.823836015392,91.915
9890.057459952584,202.212
9894.289902518456,-249.482
9898.613135046206,-36.766
9902.843190697367,-144.437
9907.163985452502,-44.644
9911.391656207565,115.55
9915.61814808206,81.41
9919.935303126713,57.775
9924.15941311792,10.505
9928.38234571751,-13.131
9932.695865648708,-7.878
9936.91641937277,84.036
9941.135797191648,-39.392
9945.445686598703,47.27
9949.662688544726,39.392
9953.878516069532,-186.455
9958.09316966365,-118.176
9962.398234183594,5.252
9966.61051589339,-13.131
9970.821625153134,-144.437
9975.031562452265,-5.252
9979.240328279942,2.626
9983.53937957713,223.221
9987.745778488254,118.176
9991.95100740443,84.036
9996.155066813732,-31.514
10000.357957203963,78.784
10004.55967906266,57.775
10008.760232877092,-55.149
10013.050897176752,-42.018
10017.249090997648,246.856
10021.446118245014,68.279
10025.641979405023,21.009
10029.83667496358,-34.14
10034.03020540632,31.514
10038.222571218605,-57.775
10042.413772885537,73.532
10046.603810891938,131.307
10050.79268572236,-57.775
10054.980397861098,13.131
10059.16694779218,-165.446
10063.352335999334,-78.784
10067.536562966066,257.361
10071.719629175575,-52.523
10075.90153511081,23.635
10080.082281254454,-81.41
10084.26186808891,-26.261
10088.440296096323,44.644
10092.52676786215,5.252
10096.702904826674,78.784
10100.877884398516,47.27
10105.051707058765,-55.149
10109.224373288234,5.252
10113.395883567471,207.464
10117.475590772649,-10.505
10121.64481569536,-31.514
10125.812886097472,-65.653
10129.979802458443,-7.878
10134.145565257517,-31.514
10138.219652237512,42.018
10142.383134400929,-21.009
10146.545464428116,149.689
10150.706642797257,107.671
10154.776246850048,-34.14
10158.935148346747,0.0
10163.092899607942,-89.288
10167.159152430871,170.699
10171.314629631466,-7.878
10175.468958016776,-115.55
10179.531863747628,10.505
10183.683920879565,-91.915
10187.834830614069,70.906
10191.894393383842,-91.915
10196.043034667582,-2.626
10200.190529969435,-2.626
10204.246753902304,170.699
10208.391983551395,-15.757
10212.44599199288,70.906
10216.588957845182,149.689
10220.640752609928,0.0
10224.781456519388,-28.887
10228.831039420063,133.933
10232.969483238625,-94.541
10237.016856085897,39.392
10241.15304166346,-76.158
10245.19820626604,-36.766
10249.332135450502,42.018
10253.375093615126,-13.131
10257.506768252357,105.045
10261.547521783785,94.541
10265.58718577827,-68.279
10269.715494418666,102.419
10273.752956473523,-28.887
10277.87901516247,-65.653
10281.91427707755,5.252
10285.948451675904,28.887
10290.0711512271,-91.915
10294.10312837192,-73.532
10298.13401952729,18.383
10302.253364041218,2.626
10306.282060424935,63.027
10310.309672144327,68.279
10314.425665714796,-76.158
10318.451085340042,112.924
10322.475421623927,-44.644
10326.498675003731,63.027
10330.610215200984,118.176
10334.631280043344,149.689
10338.651263301725,5.252
10342.670165412448,57.775
10346.687986811625,-34.14
10350.704727935088,2.626
10354.80961387438,-141.811
10358.824171771252,-10.505
10362.837650708272,31.514
10366.850051120337,-118.176
10370.86137344214,52.523
10374.871618108127,-10.505
10378.880785552512,65.653
10382.888876209276,202.212
10386.984923052532,63.027
10390.990837530662,-299.379
10394.995676531347,-36.766
10398.999440487634,34.14
10403.00212983234,105.045
10407.003744998048,-118.176
10411.004286417105,21.009
10415.003754521616,-39.392
10419.002149743475,-60.401
10422.999472514348,-105.045
10426.995723265634,39.392
10430.990902428544,49.896
10434.985010434026,78.784
10438.889325180557,-375.537
10442.881315942828,-57.775
10446.872236829608,-110.297
10450.86208827093,99.793
10454.85087069661,-49.896
10458.838584536235,49.896
10462.82523021915,249.482
10466.810808174472,-44.644
10470.706785742112,73.532
10474.690253232264,-10.505
10478.672654271297,-63.027
10482.653989287404,94.541
10486.634258708573,-223.221
10490.525047770485,-23.635
10494.50321094102,-110.297
10498.480309789697,23.635
10502.45634474356,13.131
10506.342995080442,23.635
10510.316927143493,-149.689
10514.2897965821,89.288
10518.261603822417,112.924
10522.144122034457,-89.288
10526.113829736623,-133.933
10530.082476508169,-7.878
10533.961905709137,42.018
10537.92845544769,136.559
10541.89394552126,118.176
10545.770289396216,-36.766
10549.733684937964,49.896
10553.607981637546,139.185
10557.569284306495,5.252
10561.52952941227,-147.063
10565.400746905443,68.279
10569.35890163298,31.514
10573.22807600992,36.766
10577.184142013864,-10.505
10581.05127489159,26.261
10585.005253824836,107.671
10588.87034681866,-152.316
10592.822240332363,65.653
10596.685295055897,39.392
10600.635104799476,0.0
10604.496122864624,31.514
10608.443850485746,52.523
10612.302833502728,34.14
10616.160811022752,7.878
10620.10543022464,-149.689
10623.9613750996,-23.635
10627.903916281392,31.514
10631.757830117263,-294.127
10635.61074043666,-210.09
10639.550179321655,63.027
10643.401060998756,233.726
10647.250940343372,120.802
10651.187280591832,2.626
10655.035133687184,31.514
10658.881985632182,105.045
10662.815230898605,107.671
10666.660058983602,7.878
10670.50388709854,-23.635
10674.346715633475,-70.906
10678.275847672114,55.149
10682.116655520924,-13.131
10685.956464967534,39.392
10689.795276401208,31.514
10693.633090210977,44.644
10697.557095575656,36.766
10701.39289265285,52.523
10705.227693280882,5.252
10709.061497847986,-39.392
10712.894306742182,13.131
10716.726120351308,28.887
10720.55693906298,-31.514
10724.386763264632,-112.924
10728.302600658342,-60.401
10732.130414421008,-39.392
10735.957234843503,23.635
10739.783062312445,60.401
10743.60789721425,-89.288
10747.431739935131,244.23
10751.254590861114,39.392
10755.076450378,-236.352
10758.897318871408,112.924
10762.717196726757,-42.018
10766.536084329256,228.473
10770.353982063916,57.775
10774.170890315563,47.27
10777.98680946881,-7.878
10781.801739908076,34.14
10785.615682017564,84.036
10789.341989100834,84.036
10793.153978142976,-44.644
10796.964979998098,36.766
10800.774995049622,-21.009
10804.58402368077,-70.906
10808.392066274577,-10.505
10812.199123213884,44.644
10816.005194881312,422.807
10819.723813349112,-49.896
10823.52793799081,-152.316
10827.331078498672,-112.924
10831.133235254529,26.261
10834.848029253728,-42.018
10838.64824198676,165.446
10842.447472103491,105.045
10846.24571998498,-15.757
10849.956695412544,31.514
10853.753002267928,68.279
10857.548328021428,-34.14
10861.342673053316,34.14
10865.049835794096,-60.401
10868.842242790466,-10.505
10872.63367019626,-26.261
10876.337982712816,210.09
10880.12747431772,7.878
10883.82989575329,34.14
10887.617453039476,97.167
10891.404032613404,-60.401
10895.103609289945,-65.653
10898.88825677408,152.316
10902.585945994537,123.428
10906.368662867266,23.635
10910.150403901262,-21.009
10913.845253813895,-42.018
10917.62506645972,-73.532
10921.318032531915,-2.626
10925.095918264182,115.55
10928.787001936307,55.149
10932.562962228116,-39.392
10936.252164939066,-23.635
10939.940438510435,128.68
10943.713524449233,-84.036
10947.399919206764,-44.644
10951.171083372872,-2.626
10954.855600751816,-42.018
10958.62484461311,-91.915
10962.307486047235,-60.401
10965.989200819247,-36.766
10969.755577991731,-94.541
10973.435418958636,78.784
10977.114334320191,-36.766
10980.877848072992,-296.753
10984.554891765896,128.68
10988.231010908596,102.419
10991.991664505884,-28.887
10995.665914113146,47.27
10999.33924022374,123.397
11003.011643185791,142.748
11006.768495629847,123.449
11010.439031890255,83.616
11014.108646053544,41.372
11017.777338467138,14.843
11021.530395518184,22.149
11025.197224058184,81.41
11028.863131897786,131.307
11032.528119383707,-76.158
11036.192186862492,-344.023
11039.855334680517,-133.933
11043.602720353196,-254.735
11047.264008520897,36.766
11050.924378073953,233.726
11054.58382935806,21.009
11058.242362718707,-28.887
11061.899978501227,76.158
11065.556677050785,-10.505
11069.21245871235,28.887
11072.867323830738,-47.27
11076.521272750586,7.878
11080.174305816368,10.505
11083.826423372368,-189.081
11087.477625762698,-165.446
11091.127913331318,-120.802
11094.777286422,-94.541
11098.425745378345,-173.325
11102.073290543767,-131.307
11105.719922261547,128.68
11109.36564087477,10.505
11113.010446726335,-86.662
11116.654340159006,-60.401
11120.29732151534,-34.14
11123.93939113774,-34.14
11127.580549368427,-120.802
11131.22079654947,2.626
11134.77550763161,65.653
11138.413954906267,-168.072
11142.051492148485,84.036
11145.688119699626,-49.896
11149.323837900913,0.0
11152.958647093375,28.887
11156.508048620988,28.887
11160.141061938251,149.689
11163.773167260852,-21.009
11167.40436492916,-15.757
11170.950240228543,-57.775
11174.579644697213,94.541
11178.208142523734,126.054
11181.751381744987,139.185
11185.378088371155,34.14
11189.003889365817,-63.027
11192.628785068173,57.775
11196.16850723805,-70.906
11199.79161440632,-5.252
11203.413817290922,-141.811
11206.950910239968,212.717
11210.571326582844,-47.27
11214.10667518314,21.009
11217.725306305692,-73.532
11221.343034819707,-23.635
11224.875759069631,7.878
11228.49170435076,-15.757
11232.022687482247,-52.523
11235.636850848638,81.41
11239.166094148528,26.261
11242.778476917028,-78.784
11246.305981670925,10.505
11249.91658515709,47.27
11253.442352649325,7.878
11257.05117816741,-131.307
11260.575209681025,42.018
11264.182258544,49.896
11267.704555360804,28.887
11271.309828880325,60.401
11274.83039228086,60.401
11278.350099642112,78.784
11281.952723030843,60.401
11285.470698886753,-102.419
11288.987819646914,-36.766
11292.587795825824,-13.131
11296.103186988752,-18.383
11299.70139304264,-73.532
11303.215055883851,-78.784
11306.727865201254,160.194
11310.23982130582,84.036
11313.834511810855,26.261
11317.34474212601,-78.784
11320.8541201677,-76.158
11324.446172200132,28.887
11327.953826352135,-57.775
11331.460629168672,5.252
11334.96658095964,5.252
11338.471682034791,126.054
11342.059356881087,-123.428
11345.562737216636,-241.604
11349.06526777208,210.09
11352.566948856567,2.626
11356.067780779093,123.428
11359.56776384851,170.699
11363.1502007606,42.018
11366.648466857394,-7.878
11370.145885034064,-31.514
11373.642455598843,31.514
11377.138178859836,-191.708
11380.633055125,-617.141
11384.1270847021,10.505
11387.620267898808,249.482
11391.112605022612,-91.915
11394.60409638087,42.018
11398.094742280777,10.505
11401.584543029392,-259.987
11405.073498933603,-91.915
11408.561610300185,212.717
11412.048877435727,-31.514
11415.5353006467,81.41
11419.020880239405,7.878
11422.505616520008,-18.383
11425.989509794525,-131.307
11429.472560368817,55.149
11432.954768548592,76.158
11436.43613463944,-2.626
11439.916658946764,-68.279
11443.313501961433,-55.149
11446.79236364179,-181.203
11450.270384446749,-26.261
11453.74756468115,89.288
11457.22390464968,21.009
11460.699404656869,-118.176
11464.091344754375,-107.671
11467.565185732994,194.334
11471.038187655771,52.523
11474.51035082668,28.887
11477.981675549512,68.279
11481.369541233144,-47.27
11484.839209915755,-18.383
11488.30804105362,-89.288
11491.693473394258,178.577
11495.16065027576,63.027
11498.626990514544,68.279
11502.092494413417,-47.27
11505.474679896604,18.383
11508.938531918346,-154.942
11512.401548500471,-39.392
11515.78130675673,-105.045
11519.242673239612,60.401
11522.620821260369,57.775
11526.080538823127,-107.671
11529.5394224415,7.878
11532.915147579475,21.009
11536.372384051368,94.541
11539.74650183491,52.523
11543.202092336618,-7.878
11546.574603913472,-157.568
11550.028549620163,42.018
11553.399456136987,-28.887
11556.85175822272,-120.802
11560.221060825072,18.383
11563.67172046279,-15.757
11567.039420295116,18.383
11570.488438656655,44.644
11573.854536862347,-15.757
11577.301915118398,183.829
11580.666412839755,-70.906
11584.030120381583,-52.523
11587.475050538147,-5.252
11590.837159300165,-212.717
11594.280452266124,-18.383
11597.64096338792,13.131
11601.000685734118,5.252
11604.441534950183,338.771
11607.79966135666,139.185
11611.156999826935,26.261
11614.59540789372,-39.392
11617.951152122365,-26.261
11621.306109253032,57.775
11624.66027956261,26.261
11628.09544335218,-220.595
11631.44802167594,13.131
11634.799814015252,0.0
11638.15082064648,-44.644
11641.58274474832,-5.252
11644.932161645294,81.41
11648.280793669244,110.297
11651.62864109602,13.131
11654.975704201344,60.401
11658.403590030808,97.167
11661.749066206958,15.757
11665.093758894744,-39.392
11668.43766836938,26.261
11671.780794905935,97.167
11675.12313877933,-36.766
11678.4647002644,-42.018
11681.805479635816,78.784
11685.145477168146,44.644
11688.484693135812,81.41
11691.904543291126,-102.419
11695.24217790648,-112.924
11698.579031786354,183.829
11701.915105204676,181.203
11705.25039843522,0.0
11708.584911751648,-249.482
11711.918645427471,249.482
11715.251599736104,-39.392
11718.502511651865,-44.644
11721.83392703817,78.784
11725.164563870054,-84.036
11728.4944224204,-123.428
11731.823502961994,-7.878
11735.15180576744,10.505
11738.479331109273,-55.149
11741.806079259855,-23.635
11745.132050491462,10.505
11748.457245076206,36.766
11751.70058915004,52.523
11755.024250183047,123.428
11758.34713537819,-28.887
11761.669245007088,7.878
11764.990579341233,-65.653
11768.230158619372,76.158
11771.549962071174,-133.933
11774.86899103535,44.644
11778.187245782876,-39.392
11781.423821624776,-5.252
11784.740547618409,-68.279
11788.05650020102,-112.924
11791.371679643096,15.757
11794.605256223578,107.708
11797.91890903626,120.7
11801.231789512534,81.594
11804.46312397414,17.248
11807.774479408556,-45.479
11811.085063309589,-79.727
11814.314157983485,-58.639
11817.623218427994,44.644
11820.850827315822,147.063
11824.158365355152,-39.392
11827.4651331948,26.261
11830.690506166697,44.644
11833.995753182851,2.626
11837.219642936305,-94.541
11840.52337017791,-89.288
11843.745777735792,31.514
11847.047986250807,49.896
11850.26891263506,-204.838
11853.569603470474,189.081
11856.789049702087,-5.252
11860.088223903953,-133.933
11863.30619100298,-31.514
11866.603849616356,34.14
11869.820338601929,-10.505
11873.11648267094,39.392
11876.331494561222,-57.775
11879.545777396996,73.532
11882.839660941268,31.514
11886.052468201013,-105.045
11889.26454715598,-2.626
11892.55617250015,7.878
11895.766777396242,-26.261
11899.056892350098,18.383
11902.26602420178,21.009
11905.474428998024,26.261
11908.682106985869,-60.401
11911.969222890988,-23.635
11915.17542984806,-39.392
11918.380910743392,-55.149
11921.66577540321,115.55
11924.869786778698,175.951
11928.07307283808,-112.924
11931.27563382762,10.505
11934.477469993468,-2.626
11937.758600089848,-55.149
11940.95896924119,-157.568
11944.158614312782,136.559
11947.35753555032,-49.896
11950.55573319941,-2.626
11953.753207505528,105.045
11957.029868231695,-15.757
11960.225878519712,228.473
11963.42116620667,-49.896
11966.615731537608,34.14
11969.809574757444,52.523
11973.002696111003,-26.261
11976.195095842992,52.523
11979.386774197992,15.757
11982.577731420495,-191.708
11985.767967754866,10.505
11988.957483445382,65.653
11992.146278736183,52.523
11995.334353871312,-291.501
11998.521709094712,-34.14
12001.708344650193,-5.252
12004.894260781464,18.383
12008.079457732136,5.252
12011.2639357457,91.915
12014.44769506553,-52.523
12017.630735934905,57.775
12020.81305859698,23.635
12023.994663294816,-76.158
12027.175550271351,141.811
12030.27622427429,-28.887
12033.455694464548,-99.793
12036.634447655608,13.131
12039.812484089987,-57.775
12042.989804010074,596.132
12046.166407658158,5.252
12049.26290681064,7.878
12052.4380965329,-21.009
12055.612570703324,-5.252
12058.786329563762,-60.401
12061.880055974125,-112.924
12065.052402807443,-52.523
12068.224035049663,-10.505
12071.394952942192,42.018
12074.485910333004,-123.428
12077.655418093736,-115.55
12080.824212222367,42.018
12083.913099633974,60.401
12087.080485047096,-31.514
12090.247157544738,-31.514
12093.333977055809,89.288
