Raman Shift,Intensity
58.212,363.0
59.616,363.0
61.019,373.0
62.422,360.0
63.825,364.0
65.228,378.0
66.63,384.0
68.032,382.0
69.434,396.0
70.836,391.0
72.237,402.0
73.638,402.0
75.039,398.0
76.44,429.0
77.84,442.0
79.241,440.0
80.641,470.0
82.04,491.0
83.44,538.0
84.839,535.0
86.238,564.0
87.637,628.0
89.036,630.0
90.434,704.0
91.832,783.0
93.23,800.0
94.628,855.0
96.025,836.0
97.423,864.0
98.82,896.0
100.216,899.0
101.613,902.0
103.009,969.0
104.405,977.0
105.801,1033.0
107.197,1068.0
108.592,1012.0
109.987,1030.0
111.382,1026.0
112.777,1105.0
114.171,1091.0
115.565,1129.0
116.959,1125.0
118.353,1098.0
119.747,1117.0
121.14,1124.0
122.533,1149.0
123.926,1186.0
125.318,1128.0
126.711,1129.0
128.103,1148.0
129.495,1170.0
130.886,1184.0
132.278,1137.0
133.669,1188.0
135.06,1160.0
136.451,1149.0
137.841,1169.0
139.231,1173.117
140.621,1202.0
142.011,1210.0
143.401,1219.0
144.79,1216.0
146.179,1247.0
147.568,1297.0
148.957,1395.0
150.345,1718.0
151.733,2489.0
153.121,3616.0
154.509,3984.0
155.896,3152.0
157.284,2280.0
158.671,1711.0
160.058,1545.0
161.444,1583.0
162.83,1943.0
164.217,2282.0
165.602,2166.0
166.988,1853.0
168.374,1578.0
169.759,1383.0
171.144,1306.0
172.528,1290.0
173.913,1249.0
175.297,1223.0
176.681,1243.0
178.065,1230.0
179.449,1242.0
180.832,1254.0
182.215,1246.0
183.598,1252.0
184.981,1256.0
186.363,1252.0
187.745,1288.0
189.127,1287.0
190.509,1303.0
191.891,1277.0
193.272,1314.0
194.653,1313.0
196.034,1341.0
197.414,1321.0
198.795,1324.0
200.175,1341.0
201.555,1338.0
202.935,1342.0
204.314,1386.0
205.693,1354.0
207.072,1387.0
208.451,1398.0
209.83,1375.0
211.208,1401.0
212.586,1325.0
213.964,1390.0
215.342,1375.0
216.719,1394.0
218.096,1422.0
219.473,1435.0
220.85,1455.0
222.226,1480.0
223.603,1526.0
224.979,1575.0
226.355,1641.0
227.73,1774.0
229.105,1887.0
230.481,2138.0
231.856,2653.0
233.23,3482.0
234.605,5324.0
235.979,9297.0
237.353,16870.0
238.727,25280.0
240.1,25570.0
241.474,18560.0
242.847,11570.0
244.22,6516.0
245.592,4133.0
246.965,3101.0
248.337,2608.0
249.709,2347.0
251.08,2217.0
252.452,2157.0
253.823,2098.0
255.194,2118.0
256.565,2228.0
257.936,2328.0
259.306,2622.0
260.676,3097.0
262.046,4374.0
263.416,7210.0
264.785,14640.0
266.155,27000.0
267.524,32620.0
268.892,25330.0
270.261,15420.0
271.629,8655.0
272.997,5010.0
274.365,3769.0
275.733,3413.0
277.1,3585.0
278.468,4111.0
279.835,5373.0
281.201,8248.0
282.568,13880.0
283.934,22910.0
285.3,29340.0
286.666,27140.0
288.032,19820.0
289.397,12610.0
290.762,7708.0
292.127,5031.0
293.492,3794.0
294.857,3103.0
296.221,2750.0
297.585,2550.0
298.949,2331.0
300.312,2226.0
301.676,2123.0
303.039,2076.0
304.402,2023.0
305.765,1990.0
307.127,1965.0
308.489,1947.0
309.851,1937.0
311.213,2041.0
312.575,2153.0
313.936,2435.0
315.297,2828.0
316.658,2916.0
318.019,2627.0
319.379,2236.0
320.74,1968.0
322.1,1863.0
323.46,1844.0
324.819,1841.0
326.178,1936.0
327.538,2174.0
328.897,2662.0
330.255,3619.0
331.614,4190.0
332.972,4077.0
334.33,3349.0
335.688,2716.0
337.045,2282.0
338.403,2023.0
339.76,1900.0
341.117,1828.0
342.473,1761.0
343.83,1712.0
345.186,1713.0
346.542,1696.0
347.898,1708.0
349.253,1684.0
350.609,1679.0
351.964,1677.0
353.319,1631.0
354.673,1678.0
356.028,1641.0
357.382,1677.0
358.736,1665.0
360.09,1690.0
361.443,1664.0
362.797,1636.0
364.15,1664.0
365.503,1658.0
366.856,1758.0
368.208,1801.0
369.56,1858.0
370.912,1864.0
372.264,1868.0
373.616,1841.0
374.967,1804.0
376.318,1714.0
377.669,1651.0
379.02,1657.0
380.37,1597.0
381.72,1664.0
383.07,1612.0
384.42,1623.0
385.77,1664.0
387.119,1679.0
388.468,1641.0
389.817,1688.0
391.166,1726.0
392.514,1768.0
393.863,1905.0
395.211,1975.0
396.558,2200.0
397.906,2569.0
399.253,3247.0
400.6,4240.0
401.947,5305.0
403.294,5822.0
404.641,5412.0
405.987,4283.0
407.333,3376.0
408.679,2802.0
410.024,2350.0
411.37,2151.0
412.715,2001.0
414.06,1940.0
415.405,1886.0
416.749,1796.0
418.093,1838.0
419.437,1817.0
420.781,1787.0
422.125,1841.0
423.468,1867.0
424.811,1825.0
426.154,1767.0
427.497,1758.0
428.84,1705.0
430.182,1715.0
431.524,1686.0
432.866,1678.0
434.208,1652.0
435.549,1654.0
436.89,1659.0
438.231,1690.0
439.572,1664.0
440.913,1688.0
442.253,1703.0
443.593,1698.0
444.933,1715.0
446.273,1736.0
447.612,1779.0
448.951,1835.0
450.29,1981.0
451.629,2228.0
452.968,2700.0
454.306,3412.0
455.644,4143.0
456.982,4357.0
458.32,4064.0
459.657,3491.0
460.995,2900.0
462.332,2460.0
463.668,2186.0
465.005,2023.0
466.341,1939.0
467.678,1902.0
469.014,1842.0
470.349,1846.0
471.685,1812.0
473.02,1787.0
474.355,1806.0
475.69,1776.0
477.025,1808.0
478.359,1823.0
479.693,1860.0
481.027,1860.0
482.361,1894.0
483.695,1900.0
485.028,1961.0
486.361,1993.0
487.694,2191.0
489.027,2329.0
490.359,2458.0
491.692,2403.0
493.024,2204.0
494.356,2056.0
495.687,1954.0
497.019,1914.0
498.35,1856.0
499.681,1837.0
501.012,1763.0
502.342,1780.0
503.672,1768.0
505.002,1809.0
506.332,1864.0
507.662,1886.0
508.992,1985.0
510.321,2007.0
511.65,2012.0
512.979,1981.0
514.307,1954.0
515.636,1936.0
516.964,2004.0
518.292,2113.0
519.619,2236.0
520.947,2298.0
522.274,2219.0
523.601,2091.0
524.928,2000.0
526.255,1935.0
527.581,1934.0
528.907,1884.0
530.233,1911.0
531.559,1877.0
532.885,1876.0
534.21,1878.0
535.535,1882.0
536.86,1920.0
538.185,1930.0
539.509,1948.121
540.834,1928.0
542.158,1986.0
543.482,1990.0
544.805,2018.0
546.129,2072.0
547.452,2120.0
548.775,2170.0
550.098,2221.0
551.42,2376.0
552.742,2461.0
554.065,2793.0
555.386,3177.0
556.708,3581.0
558.03,4348.0
559.351,4922.0
560.672,5191.0
561.993,4912.0
563.313,4455.0
564.634,3759.0
565.954,3267.0
567.274,2851.0
568.594,2544.0
569.913,2338.0
571.233,2244.0
572.552,2114.0
573.871,2080.0
575.189,2049.0
576.508,1969.0
577.826,2009.0
579.144,1981.0
580.462,1943.0
581.78,1928.0
583.097,1899.0
584.414,1883.501
585.731,1882.0
587.048,1871.0
588.365,1870.0
589.681,1894.0
590.997,1889.0
592.313,1883.0
593.629,1921.0
594.944,1930.0
596.26,1914.0
597.575,1925.0
598.89,1921.0
600.204,1956.0
601.519,1966.0
602.833,1950.0
604.147,1971.0
605.461,1924.0
606.774,1932.0
608.088,1940.0
609.401,1963.0
610.714,1970.0
612.026,1942.0
613.339,1964.0
614.651,1959.0
615.963,1936.0
617.275,1950.0
618.587,1897.0
619.898,1940.0
621.21,1890.0
622.521,1854.0
623.832,1894.0
625.142,1892.0
626.453,1937.0
627.763,1924.0
629.073,1971.0
630.383,1906.0
631.692,1928.0
633.001,1988.0
634.311,1994.0
635.619,2091.0
636.928,2134.0
638.237,2224.0
639.545,2330.0
640.853,2492.0
642.161,2628.0
643.469,2764.0
644.776,2770.0
646.083,2765.0
647.39,2611.0
648.697,2479.0
650.004,2316.0
651.31,2248.0
652.616,2176.0
653.922,2102.0
655.228,2056.0
656.534,2027.0
657.839,2001.445
659.144,1987.016
660.449,1990.0
661.754,1980.0
663.058,1981.0
664.362,1987.2
665.666,1976.0
666.97,2006.0
668.274,2010.0
669.577,1996.0
670.881,1990.0
672.184,2019.0
673.487,1984.0
674.789,1965.0
676.092,1962.0
677.394,2000.0
678.696,1992.851
679.997,2012.0
681.299,2024.0
682.6,2033.0
683.901,2060.0
685.202,2059.0
686.503,2037.0
687.804,2071.0
689.104,2056.0
690.404,2034.0
691.704,2031.0
693.004,2019.0
694.303,2028.0
695.602,2032.0
696.901,1991.0
698.2,2032.0
699.499,2040.0
700.797,2059.0
702.095,2102.0
703.393,2102.0
704.691,2081.0
705.989,2134.0
707.286,2135.0
708.583,2171.0
709.88,2133.0
711.177,2131.0
712.473,2102.0
713.77,2086.0
715.066,2112.0
716.362,2064.0
717.658,2070.0
718.953,2048.0
720.248,2074.0
721.543,2045.0
722.838,2007.0
724.133,2072.0
725.427,2031.0
726.722,2034.0
728.016,2066.0
729.31,2042.0
730.603,2108.0
731.897,2100.0
733.19,2039.0
734.483,2076.0
735.776,2062.0
737.068,2110.0
738.361,2052.0
739.653,2060.0
740.945,2037.0
742.236,2068.0
743.528,2092.0
744.819,2068.0
746.11,2067.0
747.401,2104.0
748.692,2071.0
749.983,2110.0
751.273,2041.0
752.563,2067.0
753.853,2089.0
755.143,2069.0
756.432,2082.22
757.721,2054.0
759.01,2073.0
760.299,2103.0
761.588,2102.0
762.876,2083.0
764.165,2148.0
765.453,2118.0
766.74,2140.0
768.028,2151.0
769.315,2158.0
770.603,2197.0
771.89,2161.0
773.176,2117.0
774.463,2154.0
775.749,2146.0
777.036,2174.0
778.322,2154.0
779.607,2155.0
780.893,2103.0
782.178,2122.133
783.463,2153.0
784.748,2136.0
786.033,2170.0
787.318,2171.0
788.602,2160.0
789.886,2165.0
791.17,2176.0
792.454,2174.0
793.737,2168.0
795.02,2180.0
796.303,2227.0
797.586,2186.0
798.869,2191.0
800.151,2209.0
801.434,2174.0
802.716,2190.0
803.998,2221.0
805.279,2179.0
806.561,2226.0
807.842,2179.0
809.123,2265.0
810.404,2237.0
811.685,2227.0
812.965,2195.0
814.245,2220.0
815.525,2212.0
816.805,2214.0
818.085,2258.0
819.364,2281.0
820.643,2276.0
821.922,2292.0
823.201,2262.0
824.48,2274.0
825.758,2302.0
827.036,2294.0
828.314,2351.0
829.592,2316.0
830.869,2371.0
832.147,2388.0
833.424,2374.0
834.701,2423.0
835.978,2430.0
837.254,2467.0
838.531,2471.0
839.807,2535.0
841.083,2671.0
842.358,2688.0
843.634,2774.0
844.909,2981.0
846.184,2964.0
847.459,3141.0
848.734,3292.0
850.008,3301.0
851.283,3453.0
852.557,3557.0
853.831,3645.0
855.104,3718.0
856.378,3659.0
857.651,3606.0
858.924,3426.0
860.197,3284.0
861.47,3221.0
862.742,2985.0
864.015,2891.0
865.287,2846.0
866.559,2814.0
867.83,2754.0
869.102,2688.0
870.373,2718.0
871.644,2669.0
872.915,2632.0
874.185,2668.0
875.456,2614.0
876.726,2631.0
877.996,2617.0
879.266,2647.0
880.536,2654.0
881.805,2641.0
883.074,2622.0
884.343,2617.0
885.612,2631.0
886.881,2665.0
888.149,2690.0
889.418,2727.0
890.686,2719.0
891.953,2685.0
893.221,2772.0
894.488,2780.0
895.756,2809.0
897.023,2904.0
898.29,2877.0
899.556,2978.0
900.823,2985.0
902.089,3037.0
903.355,3131.0
904.621,3166.0
905.886,3320.0
907.152,3418.0
908.417,3449.0
909.682,3692.0
910.947,3749.0
912.211,3889.0
913.476,4218.0
914.74,4402.0
916.004,4731.0
917.268,5103.0
918.531,5449.0
919.795,5958.0
921.058,6340.0
922.321,6935.0
923.584,7299.0
924.846,7593.0
926.109,7806.0
927.371,7996.0
928.633,8140.0
929.895,8480.0
931.156,8803.0
932.418,9704.0
933.679,11030.0
934.94,12190.0
936.201,13330.0
937.461,13180.0
938.722,12020.0
939.982,10500.0
941.242,8852.0
942.502,7544.0
943.761,6457.0
945.021,5722.0
946.28,5182.0
947.539,4726.0
948.798,4398.0
950.056,4096.0
951.315,3868.0
952.573,3793.0
953.831,3654.0
955.089,3488.0
956.346,3443.0
957.604,3338.0
958.861,3303.0
960.118,3217.0
961.375,3174.0
962.631,3179.0
963.888,3091.0
965.144,3127.0
966.4,3104.0
967.656,3114.0
968.911,3082.0
970.167,3062.0
971.422,3116.0
972.677,3113.0
973.932,3141.0
975.186,3264.0
976.441,3246.0
977.695,3450.0
978.949,3574.0
980.203,3728.0
981.456,4072.0
982.71,4320.0
983.963,4480.0
985.216,4588.0
986.469,4394.0
987.721,4133.0
988.974,3758.0
990.226,3539.0
991.478,3404.0
992.73,3209.0
993.982,3127.0
995.233,3119.0
996.484,3052.0
997.735,3039.0
998.986,3041.0
1000.237,3037.0
1001.487,3132.0
1002.738,3124.0
1003.988,3314.0
1005.237,3431.0
1006.487,3502.0
1007.737,3675.0
1008.986,3610.0
1010.235,3576.0
1011.484,3414.0
1012.732,3172.0
1013.981,3106.0
1015.229,2998.0
1016.477,2929.0
1017.725,2919.0
1018.973,2841.0
1020.22,2866.0
1021.468,2860.0
1022.715,2759.0
1023.962,2800.0
1025.208,2746.0
1026.455,2794.0
1027.701,2738.0
1028.947,2722.0
1030.193,2772.0
1031.439,2717.0
1032.684,2757.0
1033.93,2762.0
1035.175,2738.0
1036.42,2746.0
1037.665,2727.0
1038.909,2724.0
1040.154,2725.0
1041.398,2730.0
1042.642,2722.105
1043.885,2704.0
1045.129,2718.0
1046.372,2703.0
1047.615,2718.0
1048.858,2713.0
1050.101,2715.791
1051.344,2727.0
1052.586,2723.0
1053.828,2720.0
1055.07,2722.0
1056.312,2745.0
1057.554,2701.0
1058.795,2730.0
1060.036,2755.0
1061.277,2790.0
1062.518,2710.0
1063.759,2766.0
1064.999,2692.0
1066.24,2768.0
1067.48,2676.0
1068.719,2701.0
1069.959,2737.0
1071.199,2673.0
1072.438,2746.0
1073.677,2769.0
1074.916,2761.0
1076.154,2758.0
1077.393,2655.0
1078.631,2702.0
1079.869,2753.0
1081.107,2688.0
1082.345,2752.0
1083.582,2746.0
1084.82,2735.0
1086.057,2783.0
1087.294,2700.0
1088.53,2742.0
1089.767,2752.0
1091.003,2730.0
1092.239,2746.0
1093.475,2709.0
1094.711,2765.0
1095.947,2816.0
1097.182,2694.0
1098.417,2731.0
1099.652,2737.0
1100.887,2723.0
1102.122,2737.0
1103.356,2699.0
1104.59,2753.0
1105.824,2723.0
1107.058,2671.0
1108.292,2787.0
1109.525,2725.0
1110.758,2727.0
1111.991,2698.0
1113.224,2774.0
1114.457,2734.0
1115.689,2802.0
1116.922,2736.0
1118.154,2773.0
1119.385,2751.0
1120.617,2784.0
1121.849,2713.0
1123.08,2711.0
1124.311,2758.0
1125.542,2761.0
1126.773,2760.0
1128.003,2823.0
1129.234,2725.0
1130.464,2785.0
1131.694,2819.0
1132.923,2779.0
1134.153,2801.0
1135.382,2794.0
1136.612,2785.0
1137.841,2778.0
1139.069,2779.0
1140.298,2797.0
1141.526,2855.0
1142.755,2796.0
1143.983,2874.0
1145.21,2771.0
1146.438,2785.0
1147.665,2836.0
1148.893,2809.0
1150.12,2826.0
1151.347,2825.0
1152.573,2819.0
1153.8,2902.0
1155.026,2872.0
1156.252,2910.0
1157.478,2972.0
1158.704,2938.0
1159.929,3034.0
1161.155,3095.0
1162.38,3075.0
1163.605,3171.0
1164.829,3197.0
1166.054,3141.0
1167.278,3134.0
1168.503,3087.0
1169.727,3051.0
1170.95,2959.0
1172.174,2986.0
1173.397,2950.0
1174.621,2977.0
1175.844,2903.0
1177.066,2924.0
1178.289,2908.0
1179.512,2905.0
1180.734,2895.0
1181.956,2890.012
1183.178,2893.0
1184.399,2886.0
1185.621,2862.0
1186.842,2864.652
1188.063,2864.099
1189.284,2884.0
1190.505,2870.0
1191.726,2897.0
1192.946,2886.0
1194.166,2919.0
1195.386,2874.0
1196.606,2931.0
1197.826,2919.0
1199.045,2842.0
1200.264,2907.0
1201.483,2857.0
1202.702,2927.0
1203.921,2892.0
1205.139,2859.0
1206.357,2918.0
1207.575,2900.0
1208.793,2903.0
1210.011,2909.0
1211.228,2918.0
1212.446,2891.0
1213.663,2891.0
1214.88,2895.0
1216.097,2961.0
1217.313,2925.0
1218.529,2936.0
1219.746,2958.0
1220.962,2902.0
1222.177,2948.0
1223.393,2952.0
1224.608,2912.0
1225.824,2957.0
1227.039,2908.0
1228.254,2899.0
1229.468,2955.0
1230.683,2919.0
1231.897,3022.0
1233.111,2914.0
1234.325,2975.0
1235.539,2990.0
1236.752,2925.0
1237.965,2998.0
1239.179,2963.0
1240.392,2912.0
1241.604,2964.0
1242.817,2987.0
1244.029,2925.0
1245.241,3047.0
1246.453,2959.0
1247.665,2990.0
1248.877,2995.0
1250.088,2932.0
1251.3,3032.0
1252.511,2983.0
1253.722,2974.0
1254.932,2983.0
1256.143,2931.0
1257.353,2964.0
1258.563,3050.0
1259.773,2974.0
1260.983,2996.0
1262.192,3043.0
1263.402,2983.0
1264.611,3090.0
1265.82,3044.0
1267.029,2977.0
1268.237,3099.0
1269.446,3015.0
1270.654,3050.0
1271.862,3029.0
1273.07,2975.0
1274.278,3065.0
1275.485,3047.0
1276.692,2970.0
1277.9,3035.0
1279.106,3006.0
1280.313,3068.0
1281.52,3082.0
1282.726,3045.0
1283.932,3051.0
1285.138,3020.0
1286.344,3025.0
1287.55,3058.0
1288.755,3062.0
1289.96,3062.0
1291.165,3108.0
1292.37,3024.0
1293.575,3105.0
1294.779,3106.0
1295.984,3073.0
1297.188,3134.0
1298.392,3073.0
1299.595,3069.0
1300.799,3131.0
1302.002,3082.0
1303.206,3114.0
1304.409,3110.0
1305.611,3067.0
1306.814,3128.0
1308.016,3081.0
1309.219,3053.0
1310.421,3143.0
1311.623,3108.0
1312.824,3136.0
1314.026,3137.0
1315.227,3092.0
1316.428,3147.0
1317.629,3153.0
1318.83,3140.0
1320.031,3194.0
1321.231,3113.0
1322.431,3146.0
1323.631,3159.0
1324.831,3082.0
1326.031,3144.0
1327.23,3165.0
1328.429,3138.0
1329.628,3194.0
1330.827,3174.0
1332.026,3174.0
1333.225,3180.0
1334.423,3166.672
1335.621,3190.0
1336.819,3160.0
1338.017,3182.0
1339.214,3193.0
1340.412,3256.0
1341.609,3150.0
1342.806,3241.0
1344.003,3200.0
1345.2,3202.0
1346.396,3250.0
1347.592,3192.0
1348.788,3144.0
1349.984,3227.0
1351.18,3250.0
1352.376,3232.0
1353.571,3216.0
1354.766,3200.0
1355.961,3262.0
1357.156,3220.0
1358.351,3272.0
1359.545,3276.0
1360.739,3231.0
1361.933,3290.0
1363.127,3233.0
1364.321,3258.0
1365.515,3290.0
1366.708,3293.0
1367.901,3242.0
1369.094,3340.0
1370.287,3289.0
1371.479,3246.0
1372.672,3394.0
1373.864,3229.0
1375.056,3319.0
1376.248,3370.0
1377.44,3257.0
1378.631,3399.0
1379.822,3330.0
1381.014,3338.0
1382.205,3368.0
1383.395,3370.0
1384.586,3303.0
1385.776,3406.0
1386.966,3298.0
1388.157,3354.0
1389.346,3409.0
1390.536,3364.0
1391.725,3374.0
1392.915,3312.0
1394.104,3343.0
1395.293,3429.0
1396.482,3377.0
1397.67,3413.0
1398.858,3438.0
1400.047,3372.0
1401.235,3386.0
1402.422,3435.0
1403.61,3373.0
1404.798,3444.0
1405.985,3410.0
1407.172,3440.0
1408.359,3468.0
1409.546,3377.0
1410.732,3421.0
1411.918,3466.0
1413.105,3428.0
1414.291,3488.0
1415.476,3408.0
1416.662,3425.0
1417.848,3475.0
1419.033,3444.0
1420.218,3422.0
1421.403,3483.0
1422.587,3451.0
1423.772,3492.0
1424.956,3461.0
1426.14,3449.0
1427.324,3515.0
1428.508,3416.0
1429.692,3445.0
1430.875,3511.0
1432.059,3503.0
1433.242,3458.0
1434.425,3538.0
1435.607,3489.0
1436.79,3447.0
1437.972,3604.0
1439.154,3465.0
1440.336,3576.0
1441.518,3546.0
1442.7,3458.0
1443.881,3506.0
1445.062,3558.0
1446.243,3509.0
1447.424,3562.0
1448.605,3557.0
1449.786,3602.0
1450.966,3626.0
1452.146,3510.0
1453.326,3596.0
1454.506,3624.0
1455.685,3535.0
1456.865,3629.0
1458.044,3610.0
1459.223,3600.0
1460.402,3623.0
1461.581,3572.0
1462.759,3584.0
1463.938,3580.0
1465.116,3565.0
1466.294,3609.0
1467.472,3598.0
1468.649,3572.0
1469.827,3662.0
1471.004,3617.0
1472.181,3601.0
1473.358,3643.0
1474.535,3567.0
1475.711,3661.0
1476.887,3667.0
1478.064,3590.0
1479.24,3625.0
1480.415,3667.0
1481.591,3650.0
1482.767,3728.0
1483.942,3723.0
1485.117,3673.0
1486.292,3675.0
1487.467,3679.0
1488.641,3700.0
1489.815,3691.0
1490.99,3637.0
1492.164,3601.0
1493.337,3744.0
1494.511,3642.0
1495.685,3684.0
1496.858,3705.0
1498.031,3678.0
1499.204,3677.0
1500.377,3696.0
1501.549,3658.0
1502.722,3726.0
1503.894,3720.0
1505.066,3683.0
1506.238,3777.0
1507.409,3688.0
1508.581,3702.0
1509.752,3780.0
1510.923,3679.0
1512.094,3700.0
1513.265,3776.0
1514.436,3715.0
1515.606,3753.0
1516.776,3776.0
1517.946,3645.0
1519.116,3834.0
1520.286,3746.0
1521.455,3720.0
1522.625,3798.0
1523.794,3738.0
1524.963,3746.0
1526.132,3820.0
1527.3,3694.0
