Raman Shift,Intensity
90.587,5834.874
91.981,5964.0
93.375,6047.0
94.768,6084.0
96.161,6169.0
97.554,6213.582
98.947,6319.0
100.34,6331.0
101.732,6418.0
103.124,6526.0
104.516,6767.0
105.908,6990.0
107.3,6889.0
108.691,6854.0
110.082,6928.0
111.473,7009.791
112.864,7215.0
114.254,7370.0
115.644,7625.0
117.034,7904.0
118.424,8098.0
119.813,8377.0
121.203,9216.0
122.592,10441.0
123.981,12181.0
125.369,14390.0
126.758,14848.0
128.146,13228.0
129.534,10914.0
130.922,9675.0
132.309,8838.0
133.696,8548.0
135.083,8334.0
136.47,8597.0
137.857,8581.0
139.243,8890.0
140.63,8873.0
142.016,8778.0
143.401,8625.0
144.787,8635.0
146.172,8482.0
147.557,8344.0
148.942,8234.0
150.327,8173.0
151.711,8181.0
153.096,8203.0
154.48,8175.0
155.863,8044.0
157.247,8106.0
158.63,8199.0
160.013,8121.0
161.396,8240.0
162.779,8188.0
164.161,8332.0
165.544,8366.0
166.926,8437.0
168.308,8510.0
169.689,8595.147
171.07,8692.158
172.452,8796.0
173.833,8929.0
175.213,9034.0
176.594,9209.0
177.974,9356.204
179.354,9540.0
180.734,9713.0
182.114,9892.0
183.493,10111.0
184.872,10498.0
186.251,10800.0
187.63,11353.0
189.008,11628.0
190.387,12186.0
191.765,12870.0
193.143,13524.0
194.52,14310.0
195.898,14948.0
197.275,15957.0
198.652,16597.0
200.029,17658.0
201.405,18179.0
202.782,18688.0
204.158,18810.0
205.534,18920.0
206.909,18771.0
208.285,18100.0
209.66,17692.0
211.035,16898.0
212.41,16078.0
213.784,15331.0
215.159,14632.0
216.533,13956.0
217.907,13293.0
219.281,12724.0
220.654,12231.0
222.027,11899.0
223.4,11598.0
224.773,11297.0
226.146,11059.0
227.518,10776.0
228.891,10608.0
230.263,10425.0
231.634,10300.0
233.006,10157.0
234.377,9958.0
235.748,9882.0
237.119,9746.0
238.49,9719.0
239.86,9751.0
241.231,9606.0
242.601,9593.0
243.97,9417.0
245.34,9628.0
246.709,9566.0
248.079,9523.0
249.448,9586.0
250.816,9578.0
252.185,9571.0
253.553,9553.0
254.921,9669.0
256.289,9846.0
257.657,9956.0
259.024,10401.0
260.391,10917.0
261.758,11683.0
263.125,11645.0
264.492,11020.0
265.858,10406.0
267.224,9797.0
268.59,9592.0
269.956,9453.0
271.321,9397.0
272.687,9361.0
274.052,9174.0
275.416,9200.0
276.781,9321.0
278.146,9287.0
279.51,9217.0
280.874,9198.0
282.237,9250.0
283.601,9291.0
284.964,9186.0
286.327,9150.0
287.69,9264.0
289.053,9177.0
290.416,9212.0
291.778,9333.0
293.14,9171.0
294.502,9388.0
295.863,9310.0
297.225,9435.0
298.586,9352.0
299.947,9247.0
301.308,9422.0
302.668,9320.0
304.029,9300.0
305.389,9318.0
306.749,9461.0
308.108,9372.0
309.468,9452.0
310.827,9434.0
312.186,9465.0
313.545,9448.0
314.903,9458.0
316.262,9443.0
317.62,9540.0
318.978,9549.0
320.336,9565.0
321.693,9542.0
323.051,9581.0
324.408,9732.0
325.765,9490.0
327.121,9710.0
328.478,9697.0
329.834,9601.0
331.19,9592.0
332.546,9740.0
333.902,9677.0
335.257,9773.0
336.612,9771.0
337.967,9771.0
339.322,9786.0
340.677,9802.298
342.031,9824.896
343.385,9867.0
344.739,9872.0
346.093,9936.0
347.446,9939.0
348.799,10116.0
350.153,10259.0
351.505,10593.0
352.858,11017.0
354.21,11169.0
355.563,10967.0
356.915,10634.0
358.267,10526.0
359.618,10274.0
360.969,10271.0
362.321,10291.0
363.672,10207.0
365.022,10251.0
366.373,10353.0
367.723,10326.0
369.073,10347.0
370.423,10368.0
371.773,10402.0
373.122,10371.0
374.471,10368.0
375.821,10460.0
377.169,10373.0
378.518,10541.0
379.866,10416.0
381.215,10438.0
382.563,10512.0
383.91,10493.0
385.258,10538.0
386.605,10689.0
387.952,10833.0
389.299,10867.0
390.646,11155.0
391.992,11429.0
393.339,11278.0
394.685,11036.0
396.031,10955.0
397.376,11036.0
398.722,11004.0
400.067,11131.0
401.412,11013.0
402.757,10985.0
404.101,11004.0
405.446,10965.0
406.79,10862.0
408.134,10960.0
409.478,10978.0
410.821,11111.0
412.165,11175.0
413.508,11063.0
414.851,11204.0
416.193,11198.0
417.536,11148.0
418.878,11240.0
420.22,11262.0
421.562,11349.0
422.904,11398.95
424.245,11411.0
425.586,11473.0
426.927,11510.0
428.268,11472.0
429.609,11506.0
430.949,11560.0
432.289,11598.029
433.629,11675.605
434.969,11764.0
436.309,11871.0
437.648,12013.0
438.987,12186.0
440.326,12286.0
441.665,12477.0
443.003,12679.0
444.342,13360.0
445.68,13919.0
447.018,14865.0
448.355,15892.0
449.693,15976.0
451.03,16016.0
452.367,16620.0
453.704,17908.0
455.041,19589.0
456.377,22665.0
457.713,27169.0
459.049,33865.0
460.385,42854.0
461.721,52036.0
463.056,58105.0
464.391,55552.0
465.726,47491.0
467.061,38914.0
468.395,31433.0
469.73,26497.0
471.064,23290.0
472.398,20736.0
473.731,19312.0
475.065,17800.0
476.398,16843.0
477.731,16128.0
479.064,15715.0
480.397,15081.0
481.729,14876.0
483.062,14544.0
484.394,14247.0
485.725,14175.0
487.057,13851.0
488.389,13666.0
489.72,13558.0
491.051,13439.0
492.382,13463.0
493.712,13297.0
495.043,13261.0
496.373,13192.0
497.703,13092.0
499.032,13038.0
500.362,13021.0
501.691,12995.0
503.02,13018.0
504.349,12865.0
505.678,13034.0
507.007,12943.0
508.335,12822.0
509.663,12866.0
510.991,12836.0
512.319,12996.0
513.646,12823.0
514.973,12896.0
516.3,12843.0
517.627,12932.0
518.954,12974.0
520.28,12819.0
521.607,12969.0
522.933,12934.0
524.259,12920.0
525.584,12903.0
526.91,12938.0
528.235,13069.0
529.56,12925.0
530.885,12889.0
532.209,12928.0
533.534,12779.0
534.858,12945.0
536.182,12986.0
537.506,12957.0
538.829,12918.0
540.152,12945.0
541.476,12795.0
542.799,13008.0
544.121,12722.0
545.444,12861.924
546.766,13000.0
548.088,12960.0
549.41,12908.0
550.732,12870.0
552.053,12877.887
553.375,12870.23
554.696,12938.0
556.017,12925.0
557.337,13010.0
558.658,13084.0
559.978,12925.0
561.298,13148.0
562.618,13122.0
563.938,12958.0
565.257,13050.0
566.576,13243.0
567.895,13102.0
569.214,13181.0
570.533,13227.0
571.851,13021.0
573.17,13175.0
574.488,13395.0
575.805,13223.0
577.123,13260.0
578.44,13190.0
579.758,13271.0
581.075,13346.0
582.391,13214.0
583.708,13425.0
585.024,13314.0
586.341,13370.0
587.657,13487.0
588.972,13491.0
590.288,13638.0
591.603,13532.0
592.918,13376.0
594.233,13509.0
595.548,13601.0
596.863,13515.0
598.177,13544.0
599.491,13572.0
600.805,13574.0
602.119,13700.0
603.432,13586.0
604.746,13662.0
606.059,13781.0
607.372,13673.0
608.685,13611.0
609.997,13818.0
611.309,13625.0
612.621,13748.0
613.933,13670.0
615.245,13846.0
616.557,13780.0
617.868,13911.0
619.179,13868.0
620.49,13902.0
621.801,13737.0
623.111,13999.0
624.421,13889.0
625.731,14059.0
627.041,13828.0
628.351,14113.0
629.66,13970.0
630.97,13967.0
632.279,14247.0
633.588,14172.0
634.896,14063.0
636.205,14068.0
637.513,14192.0
638.821,14036.0
640.129,14200.0
641.437,14313.0
642.744,14209.0
644.051,14096.0
645.358,14238.0
646.665,14347.0
647.972,14396.0
649.278,14225.0
650.584,14284.0
651.89,14208.0
653.196,14467.0
654.502,14406.0
655.807,14526.0
657.113,14322.0
658.418,14407.696
659.722,14720.0
661.027,14416.0
662.331,14383.0
663.636,14307.0
664.94,14689.0
666.244,14351.0
667.547,14514.0
668.851,14586.0
670.154,14603.0
671.457,14677.861
672.76,14570.0
674.062,14700.0
675.365,14696.0
676.667,14647.0
677.969,14840.0
679.271,14708.0
680.572,14884.0
681.874,14772.0
683.175,14930.0
684.476,14956.0
685.777,14900.0
687.077,14960.0
688.378,14971.0
689.678,14961.0
690.978,15243.0
692.278,15217.0
693.577,14998.0
694.877,15624.0
696.176,15250.0
697.475,15200.0
698.774,15206.0
700.072,15249.0
701.371,15073.0
702.669,15194.0
703.967,15027.0
705.265,15134.0
706.562,15128.303
707.86,15234.0
709.157,15161.0
710.454,15190.0
711.751,15191.0
713.047,15300.0
714.344,15200.0
715.64,15447.0
716.936,15180.0
718.232,15279.0
719.527,15408.0
720.823,15414.0
722.118,15336.0
723.413,15470.0
724.708,15379.0
726.002,15437.0
727.297,15503.0
728.591,15360.0
729.885,15588.0
731.179,15628.0
732.472,15505.0
733.766,15488.0
735.059,15590.0
736.352,15720.0
737.645,15693.0
738.937,15631.0
740.23,15788.0
741.522,15636.0
742.814,15765.0
744.106,15745.0
745.397,15863.0
746.689,15876.0
747.98,15800.0
749.271,15865.0
750.562,15934.0
751.853,15954.0
753.143,15799.0
754.433,15806.0
755.723,16011.0
757.013,15858.0
758.303,16108.0
759.592,15910.0
760.881,16011.0
762.17,16006.0
763.459,16003.0
764.748,16235.0
766.036,16112.0
767.325,16348.0
768.613,16079.0
769.901,16196.0
771.188,16726.0
772.476,16469.395
773.763,16557.445
775.05,16454.0
776.337,16381.0
777.624,16432.0
778.91,16500.0
780.196,16490.0
781.482,16555.0
782.768,16496.0
784.054,16515.0
785.339,16653.0
786.625,16883.0
787.91,16727.0
789.195,17064.0
790.479,16980.0
791.764,17192.0
793.048,17611.0
794.332,17442.0
795.616,17629.0
796.9,17611.0
798.183,17466.0
799.467,17297.0
800.75,17360.0
802.033,17470.0
803.316,17553.0
804.598,17945.0
805.88,17526.0
807.163,17912.0
808.445,17650.0
809.726,17284.0
811.008,17187.0
812.289,17303.0
813.57,17078.0
814.851,17158.0
816.132,17190.0
817.413,17107.0
818.693,17081.0
819.973,17198.0
821.253,17155.672
822.533,17285.0
823.813,17216.0
825.092,17131.0
826.371,17163.0
827.65,17160.0
828.929,17232.0
830.208,17194.0
831.486,17259.691
832.764,17171.0
834.042,17328.0
835.32,17427.0
836.598,17401.0
837.875,17602.0
839.152,17534.0
840.429,17572.0
841.706,17669.0
842.983,17453.0
844.259,17457.0
845.536,17630.0
846.812,17436.0
848.088,17630.0
849.363,17561.0
850.639,17742.0
851.914,17865.0
853.189,17595.0
854.464,17712.0
855.739,17770.0
857.013,17984.0
858.288,17736.0
859.562,17842.0
860.836,17878.0
862.11,17836.0
863.383,17781.0
864.656,17992.0
865.93,17867.0
867.203,17894.0
868.475,18068.0
869.748,18019.0
871.02,18008.0
872.292,18068.0
873.564,18008.857
874.836,18043.0
876.108,18077.0
877.379,18055.0
878.65,18107.879
879.922,18128.312
881.192,18152.0
882.463,18236.0
883.733,18209.0
885.004,18339.0
886.274,18324.0
887.544,18390.0
888.813,18449.0
890.083,18242.0
891.352,18451.0
892.621,18611.0
893.89,18465.0
895.159,18566.0
896.427,18286.0
897.695,18372.146
898.964,18343.76
900.232,18455.0
901.499,18585.0
902.767,18703.0
904.034,18698.619
905.301,18770.98
906.568,18794.779
907.835,18780.0
909.102,18812.0
910.368,18763.0
911.634,18739.0
912.9,18809.0
914.166,18768.0
915.432,18815.414
916.697,18965.0
917.962,18826.0
919.227,19028.0
920.492,18921.0
921.757,18996.0
923.021,18936.0
924.285,19074.0
925.55,19166.0
926.813,19046.0
928.077,19143.0
929.341,19080.0
930.604,19163.0
931.867,19194.0
933.13,19083.0
934.393,19114.0
935.655,19325.0
936.918,19048.0
938.18,19395.0
939.442,19305.0
940.703,19247.0
941.965,19264.0
943.226,19458.0
944.488,19221.0
945.749,19386.0
947.009,19538.0
948.27,19354.0
949.53,19358.0
950.791,19445.0
952.051,19550.0
953.311,19488.0
954.57,19583.414
955.83,19534.0
957.089,19584.0
958.348,19633.0
959.607,19471.0
960.866,19673.0
962.124,19436.0
963.383,19623.0
964.641,19867.0
965.899,19643.0
967.156,19752.0
968.414,19664.0
969.671,19709.0
970.928,19808.0
972.185,19715.0
973.442,19814.0
974.699,19851.0
975.955,19833.0
977.211,19850.0
978.468,19824.0
979.723,19960.0
980.979,19886.0
982.234,19872.0
983.49,20082.0
984.745,19731.0
986.0,20041.0
987.254,20213.0
988.509,20002.0
989.763,20256.0
991.017,20129.0
992.271,20129.0
993.525,20098.0
994.779,20136.0
996.032,20157.0
997.285,20285.0
998.538,20389.0
999.791,20169.0
1001.044,20496.0
1002.296,20176.0
1003.548,20412.0
1004.8,20356.0
1006.052,20428.0
1007.304,20560.0
1008.555,20424.0
1009.807,20393.0
1011.058,20580.0
1012.309,20694.0
1013.559,20608.0
1014.81,20595.0
1016.06,20538.0
1017.31,20628.0
1018.56,20801.0
1019.81,20907.0
1021.06,20737.0
1022.309,20862.0
1023.558,20643.0
1024.807,20852.0
1026.056,20666.0
1027.305,20690.0
1028.553,20724.0
1029.801,20692.842
1031.049,21060.0
1032.297,20862.0
1033.545,20820.0
1034.793,21108.0
1036.04,20940.0
1037.287,21065.0
1038.534,21035.0
1039.781,21056.0
1041.027,21090.057
1042.274,20976.0
1043.52,21096.0
1044.766,21193.0
1046.012,21176.0
1047.257,21101.0
1048.503,21141.0
1049.748,21356.0
1050.993,21192.0
1052.238,21465.0
1053.483,21522.0
1054.727,21328.0
1055.971,21353.0
1057.216,21779.0
1058.459,21621.0
1059.703,21682.0
1060.947,21580.0
1062.19,21898.0
1063.433,21960.0
1064.676,22054.0
1065.919,21965.0
1067.162,22062.0
1068.404,22246.0
1069.646,21858.0
1070.888,22068.0
1072.13,22066.0
1073.372,21960.0
1074.613,22033.0
1075.855,22051.0
1077.096,21923.0
1078.337,22045.0
1079.578,22448.0
1080.818,22406.0
1082.059,22737.0
1083.299,22344.0
1084.539,22554.0
1085.779,22295.0
1087.018,22119.0
1088.258,22147.0
1089.497,21974.0
1090.736,21941.0
1091.975,21883.0
1093.213,21929.0
1094.452,21860.0
1095.69,21877.0
1096.928,21848.0
1098.166,21918.0
1099.404,21955.0
1100.642,22128.0
1101.879,21914.0
1103.116,22080.0
1104.353,21899.0
1105.59,22145.0
1106.827,21980.0
1108.063,22186.0
1109.299,21878.0
1110.536,22313.0
1111.771,22140.0
1113.007,22026.0
1114.243,22127.0
1115.478,22188.0
1116.713,22192.0
1117.948,22216.0
1119.183,22350.0
1120.418,22171.0
1121.652,22557.0
1122.886,22775.0
1124.12,22649.0
1125.354,22638.0
1126.588,22357.0
1127.821,22439.0
1129.055,22290.0
1130.288,22458.0
1131.521,22532.0
1132.753,22586.0
1133.986,22372.0
1135.218,22464.0
1136.45,22883.0
1137.682,22536.0
1138.914,22962.0
1140.146,22667.0
1141.377,22593.0
1142.609,22680.0
1143.84,22645.0
1145.071,22830.0
1146.301,22861.0
1147.532,22830.0
1148.762,22878.0
1149.992,22719.273
1151.222,22990.908
1152.452,23158.074
1153.682,23226.387
1154.911,22899.75
1156.14,23083.076
1157.369,23062.033
1158.598,23032.607
1159.827,23287.709
1161.055,23018.486
1162.284,23269.076
1163.512,23312.146
1164.74,23450.184
1165.967,23382.561
1167.195,23378.475
1168.422,23580.064
1169.65,23439.0
1170.877,23508.0
1172.103,23329.0
1173.33,23510.0
1174.557,23321.0
1175.783,23626.0
1177.009,23524.0
1178.235,23290.0
1179.461,23616.0
1180.686,23474.0
1181.912,23530.0
1183.137,23775.0
1184.362,23724.0
1185.587,23787.342
1186.811,23649.0
1188.036,23760.0
1189.26,23691.0
1190.484,23640.0
1191.708,23860.0
1192.932,24005.0
1194.155,23795.0
1195.378,23838.0
1196.602,23900.0
1197.825,24121.0
1199.047,23825.0
1200.27,24256.0
1201.492,23977.0
1202.715,24194.0
1203.937,24048.0
1205.159,24236.0
1206.38,24218.0
1207.602,24200.0
1208.823,24107.0
1210.044,24076.0
1211.265,24224.0
1212.486,24258.0
1213.707,24362.0
1214.927,24455.0
1216.147,24517.0
1217.367,24479.0
1218.587,24749.0
1219.807,24587.0
1221.027,24405.0
1222.246,24618.857
1223.465,24561.0
1224.684,24823.0
1225.903,24838.0
1227.121,24898.0
1228.34,25018.145
1229.558,24939.0
1230.776,25122.0
1231.994,24833.0
1233.212,24787.0
1234.429,25024.0
1235.646,25059.0
1236.864,25004.0
1238.081,25240.0
1239.297,25137.0
1240.514,25177.553
1241.73,25133.0
1242.947,25152.0
1244.163,25191.0
1245.378,25182.0
1246.594,25062.0
1247.81,25380.0
1249.025,24872.0
1250.24,25309.0
1251.455,25326.0
1252.67,25199.0
1253.885,25260.0
1255.099,25196.0
1256.313,25351.0
1257.527,25230.0
1258.741,25595.0
1259.955,25554.0
1261.168,25454.0
1262.382,25290.0
1263.595,25573.0
1264.808,25577.0
1266.021,25542.0
1267.233,25516.0
1268.446,25616.0
1269.658,25688.0
1270.87,25510.0
1272.082,25552.0
1273.294,25424.0
1274.505,25571.0
1275.716,25706.0
1276.928,25776.0
1278.139,25751.0
1279.349,25794.0
1280.56,25866.0
1281.77,25927.0
1282.981,25806.0
1284.191,25908.0
1285.401,26048.0
1286.61,26086.0
1287.82,25933.0
1289.029,26119.0
1290.239,26030.0
1291.448,26192.0
1292.656,26053.0
1293.865,25986.0
1295.073,26210.0
1296.282,26214.0
1297.49,26010.0
1298.698,26209.0
1299.906,26408.0
1301.113,26290.0
1302.32,26403.0
1303.528,26451.0
1304.735,26462.0
1305.942,26328.0
1307.148,26462.0
1308.355,26662.0
1309.561,26425.0
1310.767,26763.0
1311.973,26475.0
1313.179,26670.0
1314.384,26505.0
1315.59,26908.0
