Raman Shift,Intensity 
400,2.374155752
401,2.388151321
402,2.414130826
403,2.450946931
404,2.483156805
405,2.379753509
406,2.432845842
407,2.39734659
408,2.435257028
409,2.441778147
410,2.445241764
411,2.401930979
412,2.436605431
413,2.347098371
414,2.410915643
415,2.462988532
416,2.370095571
417,2.388737222
418,2.422576717
419,2.415711757
420,2.345070844
421,2.442898328
422,2.350067239
423,2.42108341
424,2.333858266
425,2.402696184
426,2.376923727
427,2.404031059
428,2.414230737
429,2.401824427
430,2.311932358
431,2.398689742
432,2.418294154
433,2.307719283
434,2.397210853
435,2.380189907
436,2.359351485
437,2.372953331
438,2.419854782
439,2.374517929
440,2.430804762
441,2.476730217
442,2.430634965
443,2.389054638
444,2.34703942
445,2.379456875
446,2.386317255
447,2.459116616
448,2.343728367
449,2.465429324
450,2.379571878
451,2.432401202
452,2.403124731
453,2.44170711
454,2.363475175
455,2.337596278
456,2.33347571
457,2.378916991
458,2.366250212
459,2.327622131
460,2.442037917
461,2.418885773
462,2.459468008
463,2.336467999
464,2.417978975
465,2.414348317
466,2.418814694
467,2.389013181
468,2.393709262
469,2.42595145
470,2.33444133
471,2.34099808
472,2.397148021
473,2.441007397
474,2.373103478
475,2.378637512
476,2.440792124
477,2.377328786
478,2.425727723
479,2.454293429
480,2.433220239
481,2.41410359
482,2.387964695
483,2.471542633
484,2.420653644
485,2.415616411
486,2.347793561
487,2.334038043
488,2.423300498
489,2.391477825
490,2.420588463
491,2.381813949
492,2.401039828
493,2.452615733
494,2.377365587
495,2.409786134
496,2.462425498
497,2.415814422
498,2.320953114
499,2.368472283
500,2.401690247
501,2.407328208
502,2.449230169
503,2.429705673
504,2.349642523
505,2.313768936
506,2.325486618
507,2.352999426
508,2.428995141
509,2.397495383
510,2.416454689
511,2.403021607
512,2.450876002
513,2.451323399
514,2.302307893
515,2.465792492
516,2.355657371
517,2.453823711
518,2.410921383
519,2.421844902
520,2.408004842
521,2.40554094
522,2.350429044
523,2.449748106
524,2.457737585
525,2.458843904
526,2.365268396
527,2.476670665
528,2.360292751
529,2.438544137
530,2.393068286
531,2.36632204
532,2.392495524
533,2.420119912
534,2.358220407
535,2.36491541
536,2.388577549
537,2.365523949
538,2.418767847
539,2.454186143
540,2.394676362
541,2.437973817
542,2.434549356
543,2.363138578
544,2.345785571
545,2.439625399
546,2.438180929
547,2.463075141
548,2.378056826
549,2.467435419
550,2.425352319
551,2.412297378
552,2.412876988
553,2.406584969
554,2.412841366
555,2.37356517
556,2.363705695
557,2.358399669
558,2.361332433
559,2.432797623
560,2.357300785
561,2.446756851
562,2.398775758
563,2.336292258
564,2.408695802
565,2.386578793
566,2.411848993
567,2.358731376
568,2.383257325
569,2.346648545
570,2.463808537
571,2.41021441
572,2.346651515
573,2.392788234
574,2.38330652
575,2.441725247
576,2.439095163
577,2.450809254
578,2.487354886
579,2.457436427
580,2.310163893
581,2.371306216
582,2.327362199
583,2.433667664
584,2.470282627
585,2.389902251
586,2.350777264
587,2.347270721
588,2.491624253
589,2.350563746
590,2.351541628
591,2.268513531
592,2.432925562
593,2.323653525
594,2.409851172
595,2.410633342
596,2.372291812
597,2.415175971
598,2.423320605
599,2.421904821
600,2.430782146
601,2.363777302
602,2.401678928
603,2.405093351
604,2.481608563
605,2.362507786
606,2.392033841
607,2.377925459
608,2.41820644
609,2.422365567
610,2.39096322
611,2.407928414
612,2.354782112
613,2.362701656
614,2.474001786
615,2.320400941
616,2.362243217
617,2.402939783
618,2.351620267
619,2.371094023
620,2.385398313
621,2.409326721
622,2.334898319
623,2.394403211
624,2.466352364
625,2.399491086
626,2.445266791
627,2.414183591
628,2.437016465
629,2.443024079
630,2.363185597
631,2.426453115
632,2.386263261
633,2.401213008
634,2.400825206
635,2.442967796
636,2.431095633
637,2.363793808
638,2.468642133
639,2.433282731
640,2.377359283
641,2.362850753
642,2.376754173
643,2.347625439
644,2.39670096
645,2.411653749
646,2.419101739
647,2.439357509
648,2.385625659
649,2.327519088
650,2.379831861
651,2.348648823
652,2.396958217
653,2.387254128
654,2.420630812
655,2.420920028
656,2.370969286
657,2.361720923
658,2.355257315
659,2.369895272
660,2.473707736
661,2.43982845
662,2.38976091
663,2.43020827
664,2.50186759
665,2.441990693
666,2.323891822
667,2.378849091
668,2.399227302
669,2.426492853
670,2.382125756
671,2.410266841
672,2.401356379
673,2.50239281
674,2.335792619
675,2.423023905
676,2.349994105
677,2.39573669
678,2.425948835
679,2.427502192
680,2.391216042
681,2.37904626
682,2.408689371
683,2.375487318
684,2.403087114
685,2.368481995
686,2.397740198
687,2.478975207
688,2.478119354
689,2.41472868
690,2.362990924
691,2.407628247
692,2.367385525
693,2.397905019
694,2.380058375
695,2.45817132
696,2.417181248
697,2.396900245
698,2.31122285
699,2.442820495
700,2.396787104
701,2.434011704
702,2.421461621
703,2.440004089
704,2.488601986
705,2.464757951
706,2.327460151
707,2.38381244
708,2.399801577
709,2.393547662
710,2.373881879
711,2.428163012
712,2.413728378
713,2.50777309
714,2.472131484
715,2.442995253
716,2.433666529
717,2.457604627
718,2.377623259
719,2.498033395
720,2.367196499
721,2.353099083
722,2.460020923
723,2.398797252
724,2.346300657
725,2.431217596
726,2.353741417
727,2.393609435
728,2.456470098
729,2.363890948
730,2.437516726
731,2.359055348
732,2.301229222
733,2.429836372
734,2.436459646
735,2.342463774
736,2.38765662
737,2.391059614
738,2.383993748
739,2.403703078
740,2.396785584
741,2.366334202
742,2.460483934
743,2.374829046
744,2.357728604
745,2.367896294
746,2.403874043
747,2.487404935
748,2.442638162
749,2.406360614
750,2.401719319
751,2.411742298
752,2.396924621
753,2.330222484
754,2.460104454
755,2.364306016
756,2.44951361
757,2.390444255
758,2.42561626
759,2.466277177
760,2.364394996
761,2.439097221
762,2.405526575
763,2.39219168
764,2.382652981
765,2.464629845
766,2.339901452
767,2.400118785
768,2.370249825
769,2.381296181
770,2.415968452
771,2.429081605
772,2.397440533
773,2.389690217
774,2.434264512
775,2.459507286
776,2.371436702
777,2.362068374
778,2.491233423
779,2.503258699
780,2.390342589
781,2.364620264
782,2.433700263
783,2.330924856
784,2.307314355
785,2.400069938
786,2.377147036
787,2.392041429
788,2.429878646
789,2.450327975
790,2.437356986
791,2.423270975
792,2.423142302
793,2.363201513
794,2.383246747
795,2.409997248
796,2.423113739
797,2.472595374
798,2.407942336
799,2.3807862
800,2.479541162
801,2.352217069
802,2.351897901
803,2.373111109
804,2.36759872
805,2.391765867
806,2.434841111
807,2.422938671
808,2.343081778
809,2.365544351
810,2.41233554
811,2.420057878
812,2.390508903
813,2.364728172
814,2.414495943
815,2.347440797
816,2.362385744
817,2.43203932
818,2.369511982
819,2.376853883
820,2.346748629
821,2.44185128
822,2.444674539
823,2.414762751
824,2.435559281
825,2.397532631
826,2.371636312
827,2.358498038
828,2.407854484
829,2.376060578
830,2.484284605
831,2.356519227
832,2.392370613
833,2.439181606
834,2.380385381
835,2.437497079
836,2.381132862
837,2.388438512
838,2.340890883
839,2.412371671
840,2.437330554
841,2.372634713
842,2.348800744
843,2.439290632
844,2.44243482
845,2.39839524
846,2.380208511
847,2.39038936
848,2.408995627
849,2.346712724
850,2.312265628
851,2.368284245
852,2.435367918
853,2.367819547
854,2.346394414
855,2.41647538
856,2.375183631
857,2.453475253
858,2.356499823
859,2.357533811
860,2.346512217
861,2.437356828
862,2.472097902
863,2.426952066
864,2.41983539
865,2.40389358
866,2.330389157
867,2.40744712
868,2.376731189
869,2.380126513
870,2.377035016
871,2.446012536
872,2.468544653
873,2.344602021
874,2.398323814
875,2.407891766
876,2.447154112
877,2.368139343
878,2.439181897
879,2.460438268
880,2.434872282
881,2.356060133
882,2.468934191
883,2.387620713
884,2.431509986
885,2.451150615
886,2.429848055
887,2.431432281
888,2.414776218
889,2.405597815
890,2.403651974
891,2.397445818
892,2.366173168
893,2.369027467
894,2.367234117
895,2.338210238
896,2.396538894
897,2.332777848
898,2.436105858
899,2.431215406
900,2.299724661
901,2.442535692
902,2.425168404
903,2.441538679
904,2.377066087
905,2.350119354
906,2.353255745
907,2.366257574
908,2.436292378
909,2.408027654
910,2.431808136
911,2.452380922
912,2.44099573
913,2.425026737
914,2.450030177
915,2.424197022
916,2.332339657
917,2.376520637
918,2.40361337
919,2.375365788
920,2.338780268
921,2.459564175
922,2.427565798
923,2.443367491
924,2.435723205
925,2.393540478
926,2.349532433
927,2.371603733
928,2.398919045
929,2.338221066
930,2.446081135
931,2.376590065
932,2.410048302
933,2.41109943
934,2.45703834
935,2.395689017
936,2.392353467
937,2.416409213
938,2.321887902
939,2.39110747
940,2.376399997
941,2.416833629
942,2.432157443
943,2.426165199
944,2.283713275
945,2.395591719
946,2.432239619
947,2.364349373
948,2.332134893
949,2.424614593
950,2.359688768
951,2.373759522
952,2.406088029
953,2.425482034
954,2.415726524
955,2.343711338
956,2.361021483
957,2.359040333
958,2.3781737
959,2.378741654
960,2.435241097
961,2.372975169
962,2.419549576
963,2.38661448
964,2.456357827
965,2.361185768
966,2.364884687
967,2.396463314
968,2.371552583
969,2.399324445
970,2.419519525
971,2.447378709
972,2.407410636
973,2.403415894
974,2.357236078
975,2.414149388
976,2.395566692
977,2.413501048
978,2.479941529
979,2.408590095
980,2.420428402
981,2.407255827
982,2.355450238
983,2.394438184
984,2.454612421
985,2.446895822
986,2.387136619
987,2.345249544
988,2.443481266
989,2.404843402
990,2.536042909
991,2.509724038
992,2.430673141
993,2.349959143
994,2.451624716
995,2.343453428
996,2.447368527
997,2.442184663
998,2.361523569
999,2.466702753
1000,2.416471046
1001,2.356216082
1002,2.35516694
1003,2.457072222
1004,2.407852332
1005,2.420819395
1006,2.364694063
1007,2.37651894
1008,2.35780249
1009,2.330378604
1010,2.385858979
1011,2.442516616
1012,2.45725895
1013,2.418639737
1014,2.425247759
1015,2.402607102
1016,2.352263556
1017,2.302902929
1018,2.430801646
1019,2.403086337
1020,2.388050437
1021,2.376182904
1022,2.354695002
1023,2.293769291
1024,2.380191053
1025,2.513688746
1026,2.453943595
1027,2.419549933
1028,2.415477287
1029,2.340161311
1030,2.41806982
1031,2.38489496
1032,2.41347639
1033,2.403072666
1034,2.395243912
1035,2.371971234
1036,2.451492989
1037,2.361550316
1038,2.359999393
1039,2.344531946
1040,2.412201183
1041,2.426704375
1042,2.368848221
1043,2.443727053
1044,2.393806027
1045,2.452157288
1046,2.399074608
1047,2.401041724
1048,2.325347076
1049,2.379758608
1050,2.429864408
1051,2.346225143
1052,2.371170151
1053,2.424025325
1054,2.433200028
1055,2.444407472
1056,2.378990698
1057,2.399529123
1058,2.472654675
1059,2.398939904
1060,2.437549781
1061,2.413702529
1062,2.413207348
1063,2.372649703
1064,2.378983629
1065,2.394326724
1066,2.388346857
1067,2.427700809
1068,2.384071505
1069,2.41228987
1070,2.4159262
1071,2.37488477
1072,2.424506072
1073,2.393342246
1074,2.397853398
1075,2.413532501
1076,2.394513565
1077,2.429720507
1078,2.409907921
1079,2.428010108
1080,2.396946782
1081,2.464410222
1082,2.356442436
1083,2.382634135
1084,2.35288335
1085,2.347499591
1086,2.364677489
1087,2.357281055
1088,2.419604899
1089,2.465653205
1090,2.434494002
1091,2.371328093
1092,2.35732543
1093,2.37528926
1094,2.43769828
1095,2.438015608
1096,2.389592137
1097,2.422192868
1098,2.40360587
1099,2.458695164
1100,2.393347993
1101,2.380235893
1102,2.394784977
1103,2.419964614
1104,2.435498435
1105,2.335193693
1106,2.420816469
1107,2.354962929
1108,2.396368457
1109,2.307406425
1110,2.385478298
1111,2.429342909
1112,2.30397934
1113,2.412520837
1114,2.403497907
1115,2.325073162
1116,2.411078766
1117,2.38536561
1118,2.357520514
1119,2.378714568
1120,2.379296822
1121,2.383508908
1122,2.407774736
1123,2.323695705
1124,2.40964663
1125,2.387118018
1126,2.421583624
1127,2.379999975
1128,2.356708829
1129,2.373337599
1130,2.451948668
1131,2.389537678
1132,2.383682236
1133,2.401469086
1134,2.372506763
1135,2.342434622
1136,2.39585663
1137,2.43262865
1138,2.398365308
1139,2.331234039
1140,2.373867936
1141,2.399515177
1142,2.448558411
1143,2.386640665
1144,2.405297645
1145,2.371679884
1146,2.383255127
1147,2.445546632
1148,2.443262975
1149,2.316638775
1150,2.366397993
1151,2.374059147
1152,2.384101664
1153,2.350667813
1154,2.40302983
1155,2.340687668
1156,2.417427181
1157,2.351429511
1158,2.335114112
1159,2.404585505
1160,2.450346018
1161,2.463545101
1162,2.422689724
1163,2.380448855
1164,2.458899299
1165,2.407588945
1166,2.426928508
1167,2.44905093
1168,2.412504065
1169,2.418052797
1170,2.354337998
1171,2.478467524
1172,2.409669979
1173,2.409188252
1174,2.365373057
1175,2.343273676
1176,2.400255282
1177,2.350628179
1178,2.415280737
1179,2.401359071
1180,2.339725845
1181,2.418241903
1182,2.341877265
1183,2.373038026
1184,2.334364722
1185,2.415397302
1186,2.436499954
1187,2.453776899
1188,2.394269111
1189,2.408839098
1190,2.356617221
1191,2.385615552
1192,2.404550417
1193,2.385649675
1194,2.299484469
1195,2.384641744
1196,2.421306113
1197,2.384114848
1198,2.398867209
1199,2.424877026
1200,2.436283847
1201,2.432567255
1202,2.43690831
1203,2.43083465
1204,2.4210721
1205,2.399420197
1206,2.3110294
1207,2.409698731
1208,2.40753178
1209,2.411794692
1210,2.42575255
1211,2.338463865
1212,2.412342919
1213,2.405606739
1214,2.431420399
1215,2.398224248
1216,2.327470588
1217,2.33256589
1218,2.396826168
1219,2.493093002
1220,2.343574988
1221,2.430500349
1222,2.406336363
1223,2.368864487
1224,2.473484539
1225,2.383904148
1226,2.422674064
1227,2.392698185
1228,2.441859617
1229,2.39722607
1230,2.520738152
1231,2.406462514
1232,2.39778273
1233,2.339188278
1234,2.409776344
1235,2.381685521
1236,2.383298504
1237,2.366921174
1238,2.476382569
1239,2.451591638
1240,2.381080836
1241,2.4226161
1242,2.371785474
1243,2.437022333
1244,2.395279076
1245,2.368261837
1246,2.424814967
1247,2.340300733
1248,2.404672024
1249,2.424743168
1250,2.426700926
1251,2.359286284
1252,2.444993567
1253,2.379711072
1254,2.354051387
1255,2.341403895
1256,2.414935276
1257,2.392382234
1258,2.337139936
1259,2.411305402
1260,2.397856902
1261,2.416756833
1262,2.461479866
1263,2.377661298
1264,2.464156272
1265,2.411312392
1266,2.360691185
1267,2.414630854
1268,2.361844946
1269,2.469171718
1270,2.416843878
1271,2.374337508
1272,2.330632068
1273,2.426636007
1274,2.428252396
1275,2.341322843
1276,2.431911378
1277,2.488046453
1278,2.42875581
1279,2.314655176
1280,2.426172539
1281,2.516709718
1282,2.43715222
1283,2.367123152
1284,2.366781649
1285,2.415953859
1286,2.397172102
1287,2.388284743
1288,2.377452658
1289,2.419154171
1290,2.449786447
1291,2.396723036
1292,2.426785232
1293,2.408155596
1294,2.43847059
1295,2.455238657
1296,2.421735398
1297,2.367632418
1298,2.343532975
1299,2.369796826
1300,2.446714577
1301,2.380772642
1302,2.352414462
1303,2.367315859
1304,2.342303497
1305,2.393015483
1306,2.290913333
1307,2.398594417
1308,2.357998292
1309,2.383513041
1310,2.381779269
1311,2.402224398
1312,2.348475631
1313,2.363443518
1314,2.411252237
1315,2.366817119
1316,2.37727828
1317,2.389058832
1318,2.376922678
1319,2.396630394
1320,2.413865482
1321,2.436008874
1322,2.348608099
1323,2.361057156
1324,2.390519801
1325,2.389851282
1326,2.444581667
1327,2.354623553
1328,2.351536301
1329,2.41885767
1330,2.476130377
1331,2.413416146
1332,2.419628068
1333,2.373913279
1334,2.421616476
1335,2.410322003
1336,2.350657741
1337,2.429860327
1338,2.42941011
1339,2.402631186
1340,2.293954352
1341,2.433574439
1342,2.390427385
1343,2.422938884
1344,2.3883303
1345,2.353676318
1346,2.39952778
1347,2.440537885
1348,2.42732218
1349,2.369784425
1350,2.370568507
1351,2.430955905
1352,2.351339533
1353,2.387714095
1354,2.468569198
1355,2.394633907
1356,2.473605598
1357,2.460455054
1358,2.413092264
1359,2.358469787
1360,2.379754241
1361,2.430058925
1362,2.450768216
1363,2.383963532
1364,2.394372344
1365,2.386617892
1366,2.378331162
1367,2.40656767
1368,2.439851087
1369,2.4271531
1370,2.405761122
1371,2.427937951
1372,2.34331484
1373,2.371895294
1374,2.378835455
1375,2.398721454
1376,2.424497179
1377,2.4413996
1378,2.342841044
1379,2.389959575
1380,2.42705697
1381,2.416077978
1382,2.396269121
1383,2.407929761
1384,2.360680056
1385,2.350127718
1386,2.42451462
1387,2.393903433
1388,2.432222685
1389,2.374114063
1390,2.384938714
1391,2.458268923
1392,2.450805512
1393,2.432605593
1394,2.389537602
1395,2.390302594
1396,2.423548745
1397,2.480110923
1398,2.399119725
1399,2.396139982
1400,2.391618265
1401,2.475423042
1402,2.386417631
1403,2.374647649
1404,2.408148244
1405,2.43049716
1406,2.418055893
1407,2.426135598
1408,2.43696133
1409,2.431729591
1410,2.422161627
1411,2.391268674
1412,2.387723815
1413,2.528564142
1414,2.357587126
1415,2.411587684
1416,2.356193764
1417,2.464024316
1418,2.414913736
1419,2.429345265
1420,2.391349985
1421,2.365861595
1422,2.449786776
1423,2.485859723
1424,2.400800758
1425,2.396856483
1426,2.409902076
1427,2.470536126
1428,2.445487311
1429,2.405876449
1430,2.415314342
1431,2.405108403
1432,2.395022703
1433,2.389240043
1434,2.440781896
1435,2.408814561
1436,2.400442912
1437,2.41287441
1438,2.435933745
1439,2.461003998
1440,2.434382904
1441,2.432639303
1442,2.429487393
1443,2.419259635
1444,2.383789904
1445,2.461972855
1446,2.318454437
1447,2.406234024
1448,2.422660332
1449,2.425348579
1450,2.420750504
1451,2.443797621
1452,2.373074919
1453,2.480143552
1454,2.444951676
1455,2.458502163
1456,2.451190538
1457,2.427720518
1458,2.453044692
1459,2.461073924
1460,2.455955321
1461,2.433441336
1462,2.51245001
1463,2.447425859
1464,2.454395243
1465,2.470062223
1466,2.461208795
1467,2.539912835
1468,2.490520505
1469,2.483423295
1470,2.440927589
1471,2.436633686
1472,2.496093544
1473,2.474597555
1474,2.4823193
1475,2.489259413
1476,2.446182018
1477,2.473041322
1478,2.428539118
1479,2.463877299
1480,2.448056742
1481,2.47660613
1482,2.479890536
1483,2.507707342
1484,2.413185427
1485,2.412663356
1486,2.495093545
1487,2.524768073
1488,2.521692907
1489,2.468032864
1490,2.500528838
1491,2.526394191
1492,2.460493772
1493,2.552249952
1494,2.464471486
1495,2.404282196
1496,2.509708792
1497,2.500422007
1498,2.528979789
1499,2.43986446
1500,2.455911133
1501,2.548589725
1502,2.522403041
1503,2.502315838
1504,2.460850565
1505,2.497650049
1506,2.551269765
1507,2.46476526
1508,2.512524573
1509,2.509163898
1510,2.554378456
1511,2.547535988
1512,2.472156343
1513,2.506625198
1514,2.526455937
1515,2.550616405
1516,2.500035222
1517,2.485186079
1518,2.571811734
1519,2.55474098
1520,2.565891923
1521,2.484394514
1522,2.49702197
1523,2.521135164
1524,2.569610781
1525,2.516354972
1526,2.53882928
1527,2.563232603
1528,2.556729051
1529,2.611478789
1530,2.536811216
1531,2.497210261
1532,2.453342053
1533,2.489544005
1534,2.512337502
1535,2.474174668
1536,2.521297546
1537,2.544631271
1538,2.540443662
1539,2.533275644
1540,2.510805679
1541,2.594004088
1542,2.49622698
1543,2.521521776
1544,2.527926584
1545,2.570855953
1546,2.582022283
1547,2.574931731
1548,2.567377014
1549,2.509802207
1550,2.566181864
1551,2.537332688
1552,2.541996646
1553,2.582121915
1554,2.543480073
1555,2.630850951
1556,2.603908238
1557,2.53822289
1558,2.526258661
1559,2.582747929
1560,2.580105792
1561,2.532238464
1562,2.625936811
1563,2.55993989
1564,2.572203692
1565,2.542196898
1566,2.620617635
1567,2.532877679
1568,2.618197616
1569,2.560723399
1570,2.532879625
1571,2.57105027
1572,2.493997775
1573,2.630316303
1574,2.585375647
1575,2.624173457
1576,2.613348834
1577,2.625397804
1578,2.576251538
1579,2.573510027
1580,2.587993405
1581,2.569917335
1582,2.621640336
1583,2.549741055
1584,2.539174785
1585,2.613127557
1586,2.503714102
1587,2.634685799
1588,2.539961049
1589,2.633696279
1590,2.616096421
1591,2.549519691
1592,2.590938701
1593,2.645027661
1594,2.603357655
1595,2.572847284
1596,2.556319183
1597,2.6113339
1598,2.664026877
1599,2.691411943
1600,2.628284462
1601,2.542143626
1602,2.707544059
1603,2.57590808
1604,2.620933471
1605,2.641258516
1606,2.568911378
1607,2.601813738
1608,2.633379824
1609,2.577284675
1610,2.631643485
1611,2.65475672
1612,2.663586395
1613,2.504878982
1614,2.596042235
1615,2.573570529
1616,2.604954418
1617,2.623466727
1618,2.572210649
1619,2.568090672
1620,2.591359503
1621,2.585792689
1622,2.619680892
1623,2.57818942
1624,2.579831188
1625,2.521328987
1626,2.564223709
1627,2.596641539
1628,2.58648753
1629,2.655856745
1630,2.577216102
1631,2.674536875
1632,2.580366614
1633,2.503144653
1634,2.639155895
1635,2.539607532
1636,2.620040007
1637,2.553946428
1638,2.589424502
1639,2.548585968
1640,2.564210435
1641,2.572279054
1642,2.655600194
1643,2.565599429
1644,2.643891848
1645,2.576105967
1646,2.549523405
1647,2.512744563
1648,2.510339132
1649,2.580463955
1650,2.566879309
1651,2.557735583
1652,2.558560416
1653,2.517234616
1654,2.555923889
1655,2.615227152
1656,2.59572177
1657,2.581203387
1658,2.594466841
1659,2.620317509
1660,2.531096521
1661,2.557308882
1662,2.520920863
1663,2.590792772
1664,2.571296351
1665,2.550020852
1666,2.522010083
1667,2.589755431
1668,2.448171366
1669,2.52804002
1670,2.559026048
1671,2.517664808
1672,2.467176306
1673,2.557033409
1674,2.562460435
1675,2.511975822
1676,2.549884553
1677,2.492346846
1678,2.528199381
1679,2.369223662
1680,2.53546999
1681,2.542126643
1682,2.531411995
1683,2.562442655
1684,2.490181728
1685,2.463460063
1686,2.507566711
1687,2.55490558
1688,2.47557987
1689,2.528461275
1690,2.570479826
1691,2.513573416
1692,2.455425135
1693,2.485614741
1694,2.543892944
1695,2.53688537
1696,2.407494909
1697,2.51765788
1698,2.482085919
1699,2.476829516
1700,2.447639833
1701,2.529621559
1702,2.462468729
1703,2.468470768
1704,2.437848821
1705,2.460836142
1706,2.52889626
1707,2.454347473
1708,2.495759862
1709,2.467984663
1710,2.473918018
1711,2.472748735
1712,2.527801342
1713,2.485554379
1714,2.494266746
1715,2.460041172
1716,2.433405348
1717,2.41056519
1718,2.494632738
1719,2.405642808
1720,2.471295251
1721,2.522649085
1722,2.479964374
1723,2.494926384
1724,2.496000245
1725,2.464501389
1726,2.462190322
1727,2.397254009
1728,2.489120735
1729,2.42501678
1730,2.492838934
1731,2.448948573
1732,2.36342856
1733,2.450982435
1734,2.470740753
1735,2.428902809
1736,2.439419938
1737,2.453720043
1738,2.480206839
1739,2.429686481
1740,2.461304287
1741,2.500949466
1742,2.42054377
1743,2.399424152
1744,2.449511768
1745,2.369318022
1746,2.41960607
1747,2.408735256
1748,2.370833949
1749,2.421043334
1750,2.507655268
1751,2.426416033
1752,2.430250019
1753,2.445372133
1754,2.3633695
1755,2.429168775
1756,2.408260057
1757,2.473514962
1758,2.488354965
1759,2.414053524
1760,2.391288672
1761,2.357009983
1762,2.422815369
1763,2.45404177
1764,2.422048192
1765,2.409504723
1766,2.364685206
1767,2.485194913
1768,2.409908318
1769,2.493046944
1770,2.424379412
1771,2.380469479
1772,2.384627174
1773,2.393869382
1774,2.439255826
1775,2.415184269
1776,2.399811893
1777,2.468187536
1778,2.419079063
1779,2.393122523
1780,2.42770891
1781,2.415723196
1782,2.40636016
1783,2.413584979
1784,2.407319604
1785,2.476050243
1786,2.459247123
1787,2.397809806
1788,2.392625073
1789,2.405450129
1790,2.405678447
1791,2.492426821
1792,2.354949538
1793,2.42220762
1794,2.450224111
1795,2.41225807
1796,2.398572127
1797,2.418662979
1798,2.393530402
1799,2.437560255
1800,2.399208935
1801,2.40873636
1802,2.400874445
1803,2.388523957
1804,2.412504813
1805,2.505174724
1806,2.380573283
1807,2.428766741
1808,2.378562235
1809,2.430074378
1810,2.381868729
1811,2.442620334
1812,2.419834066
1813,2.42593446
1814,2.439503949
1815,2.450817703
1816,2.451816583
1817,2.422892732
1818,2.436793971
1819,2.40970296
1820,2.384782238
1821,2.469241518
1822,2.426406825
1823,2.438577016
1824,2.443387001
1825,2.440861598
1826,2.401557183
1827,2.407049978
1828,2.418322987
1829,2.434604316
1830,2.308436211
1831,2.397767369
1832,2.451141451
1833,2.432360207
1834,2.366829576
1835,2.520839103
1836,2.42743748
1837,2.403750841
1838,2.421260613
1839,2.491569924
1840,2.443029854
1841,2.469293634
1842,2.452645514
1843,2.388757433
1844,2.366795078
1845,2.407129976
1846,2.42526037
1847,2.40144538
1848,2.377681843
1849,2.349927116
1850,2.426972456
1851,2.430033082
1852,2.425705798
1853,2.377555669
1854,2.390988341
1855,2.397594887
1856,2.387789895
1857,2.367762406
1858,2.358800236
1859,2.338828968
1860,2.339558026
1861,2.327479066
1862,2.408871391
1863,2.438458339
1864,2.451549035
1865,2.432021713
1866,2.400494159
1867,2.428797317
1868,2.40851734
1869,2.42887149
1870,2.369502753
1871,2.4029526
1872,2.442811485
1873,2.415373439
1874,2.387567317
1875,2.425228805
1876,2.399234756
1877,2.382779573
1878,2.402780039
1879,2.330887297
1880,2.410194036
1881,2.369194851
1882,2.444451091
1883,2.389393989
1884,2.485156082
1885,2.420979662
1886,2.413682372
1887,2.399748959
1888,2.423521032
1889,2.389796182
1890,2.410008108
1891,2.350477591
1892,2.414489329
1893,2.451467869
1894,2.374331497
1895,2.424411922
1896,2.32691287
1897,2.404996719
1898,2.394483946
1899,2.370439953
1900,2.413614162
1901,2.349382763
1902,2.379441502
1903,2.45598374
1904,2.413461032
1905,2.403762552
1906,2.413819031
1907,2.365591619
1908,2.387114298
1909,2.328390713
1910,2.430225145
1911,2.437200068
1912,2.424481567
1913,2.401750292
1914,2.371237378
1915,2.390729851
1916,2.461215297
1917,2.367505395
1918,2.351394285
1919,2.4826896
1920,2.438175558
1921,2.398034388
1922,2.406888112
1923,2.355362789
1924,2.438918203
1925,2.371778536
1926,2.442545774
1927,2.370797192
1928,2.350596729
1929,2.353018086
1930,2.378191397
1931,2.385897028
1932,2.398216569
1933,2.417097636
1934,2.385687254
1935,2.339853684
1936,2.402806496
1937,2.389089539
1938,2.407096501
1939,2.395331372
1940,2.433974394
1941,2.469218054
1942,2.327887431
1943,2.496776118
1944,2.437793951
1945,2.407053182
1946,2.358827227
1947,2.409532889
1948,2.31605589
1949,2.349265855
1950,2.404662619
1951,2.384568076
1952,2.371225911
1953,2.338945775
1954,2.407910731
1955,2.415221689
1956,2.391759888
1957,2.426326392
1958,2.330056137
1959,2.383645345
1960,2.344244954
1961,2.382915383
1962,2.405268421
1963,2.352699391
1964,2.393315024
1965,2.419353369
1966,2.386739463
1967,2.446196377
1968,2.427972265
1969,2.3833099
1970,2.419438601
1971,2.50020493
1972,2.429117292
1973,2.361281973
1974,2.352662957
1975,2.381364175
1976,2.405237199
1977,2.441013723
1978,2.396614405
1979,2.330426493
1980,2.441052831
1981,2.429059811
1982,2.395908334
1983,2.329384704
1984,2.432960137
1985,2.340550016
1986,2.363730064
1987,2.43561197
1988,2.391855186
1989,2.399946585
1990,2.412590572
1991,2.394010667
1992,2.439167624
1993,2.360595293
1994,2.389931431
1995,2.444501342
1996,2.392565683
1997,2.434673382
1998,2.364480712
1999,2.366357536
2000,2.465612024
2001,2.375968139
2002,2.433743147
2003,2.350810483
2004,2.356049666
2005,2.445321733
2006,2.434465127
2007,2.456711517
2008,2.330738527
2009,2.351760726
2010,2.363208549
2011,2.413201632
2012,2.452843041
2013,2.438622548
2014,2.392897551
2015,2.415574934
2016,2.420470791
2017,2.337112199
2018,2.361600139
2019,2.341070757
2020,2.483413268
2021,2.3780473
2022,2.431083878
2023,2.358258181
2024,2.31866833
2025,2.421637372
2026,2.397009819
2027,2.399423998
2028,2.387704017
2029,2.393202482
2030,2.324775571
2031,2.419134206
2032,2.373677532
2033,2.453380243
2034,2.36988533
2035,2.387891119
2036,2.434603851
2037,2.375250564
2038,2.378938157
2039,2.337190863
2040,2.397618735
2041,2.435749466
2042,2.358997655
2043,2.361771822
2044,2.411270073
2045,2.442758505
2046,2.417303716
2047,2.40899302
2048,2.505557708
2049,2.378537427
2050,2.355652898
2051,2.409293188
2052,2.437522551
2053,2.364102139
2054,2.361633676
2055,2.402826954
2056,2.441596405
2057,2.391958712
2058,2.385137937
2059,2.419540872
2060,2.408573485
2061,2.422684174
2062,2.422545073
2063,2.432038853
2064,2.380565668
2065,2.399208705
2066,2.372101872
2067,2.382694778
2068,2.450966841
2069,2.407244031
2070,2.440891517
2071,2.396514223
2072,2.455070156
2073,2.390562371
2074,2.377354089
2075,2.405670002
2076,2.366719144
2077,2.497081561
2078,2.42023587
2079,2.315610986
2080,2.351922933
2081,2.362075657
2082,2.354144804
2083,2.349958909
2084,2.380228211
2085,2.421037255
2086,2.406229745
2087,2.366996183
2088,2.44235757
2089,2.323849528
2090,2.342696459
2091,2.372568651
2092,2.385784385
2093,2.358511015
2094,2.383900097
2095,2.38131667
2096,2.405413708
2097,2.394533285
2098,2.495273716
2099,2.442449649
2100,2.449881608
2101,2.351482074
2102,2.391832297
2103,2.357632586
2104,2.348737964
2105,2.456278038
2106,2.4361141
2107,2.388976973
2108,2.402966545
2109,2.391931133
2110,2.398595981
2111,2.412777023
2112,2.450492046
2113,2.378893032
2114,2.435258858
2115,2.373293975
2116,2.357530986
2117,2.33675007
2118,2.392330176
2119,2.36317515
2120,2.359841603
2121,2.420149006
2122,2.412512866
2123,2.386218308
2124,2.368544566
2125,2.422375312
2126,2.387449865
2127,2.353295368
2128,2.536423821
2129,2.314943873
2130,2.360995235
2131,2.444885382
2132,2.419436604
2133,2.408194417
2134,2.411643171
2135,2.36896499
2136,2.376115465
2137,2.4254281
2138,2.368453018
2139,2.345204134
2140,2.406343124
2141,2.323441938
2142,2.382307907
2143,2.380812808
2144,2.318521202
2145,2.446187402
2146,2.401625407
2147,2.452784517
2148,2.350141116
2149,2.378591861
2150,2.408296573
2151,2.399799614
2152,2.393959427
2153,2.414953262
2154,2.39302477
2155,2.338944673
2156,2.424030957
2157,2.488675491
2158,2.422488276
2159,2.451919165
2160,2.358929018
2161,2.395438257
2162,2.376993663
2163,2.428211953
2164,2.516214601
2165,2.484787202
2166,2.357397359
2167,2.429537132
2168,2.431315667
2169,2.420319007
2170,2.421272148
2171,2.406148989
2172,2.406117535
2173,2.344387098
2174,2.365579838
2175,2.38876424
2176,2.355844902
2177,2.43416288
2178,2.359846441
2179,2.354391397
2180,2.423446181
2181,2.448638094
2182,2.369569504
2183,2.413136959
2184,2.387480495
2185,2.487771664
2186,2.437412935
2187,2.438978609
2188,2.402046594
2189,2.369916451
2190,2.393741537
2191,2.478809914
2192,2.437921133
2193,2.423556573
2194,2.433281531
2195,2.421532601
2196,2.413973347
2197,2.464626026
2198,2.429524595
2199,2.406714935
2200,2.433951859
2201,2.40882372
2202,2.433131012
2203,2.391336667
2204,2.451746754
2205,2.338431173
2206,2.412782944
2207,2.355172377
2208,2.422644269
2209,2.406922443
2210,2.378600309
2211,2.394896651
2212,2.429398112
2213,2.349163758
2214,2.434807647
2215,2.366411443
2216,2.379162658
2217,2.434283495
2218,2.443483068
2219,2.348839458
2220,2.39482906
2221,2.364879826
2222,2.460573863
2223,2.375508692
2224,2.385946935
2225,2.422406677
2226,2.440702713
2227,2.388677143
2228,2.366328293
2229,2.348045167
2230,2.412803246
2231,2.4479326
2232,2.442818545
2233,2.443684639
2234,2.390798736
2235,2.440711135
2236,2.37549193
2237,2.381460771
2238,2.399996314
2239,2.348856741
2240,2.336027579
2241,2.418238267
2242,2.371355293
2243,2.451950585
2244,2.476106937
2245,2.411187248
2246,2.455477406
2247,2.474480927
2248,2.446983538
2249,2.39621739
2250,2.356112013
2251,2.399939989
2252,2.339960872
2253,2.362024534
2254,2.374485322
2255,2.306092072
2256,2.372423979
2257,2.366356634
2258,2.487177174
2259,2.384789305
2260,2.41678148
2261,2.471523032
2262,2.401588979
2263,2.407817141
2264,2.320487779
2265,2.373750783
2266,2.382791601
2267,2.426549694
2268,2.406913503
2269,2.393010906
2270,2.438737966
2271,2.461154671
2272,2.428717102
2273,2.396066854
2274,2.375653964
2275,2.379142795
2276,2.490048552
2277,2.399014396
2278,2.426399422
2279,2.382642322
2280,2.425635247
2281,2.38633933
2282,2.343689415
2283,2.484831186
2284,2.393660223
2285,2.390042562
2286,2.394247119
2287,2.457558863
2288,2.413713634
2289,2.380268732
2290,2.370692229
2291,2.378803572
2292,2.351669615
2293,2.378444406
2294,2.401211993
2295,2.387039127
2296,2.452186014
2297,2.40221521
2298,2.43676732
2299,2.363659493
2300,2.433596616
2301,2.396550793
2302,2.429492602
2303,2.400102545
2304,2.428520007
2305,2.399226819
2306,2.408154767
2307,2.383768398
2308,2.367843138
2309,2.418801452
2310,2.305052545
2311,2.418701714
2312,2.407890157
2313,2.318527299
2314,2.509173793
2315,2.451316821
2316,2.335072665
2317,2.400341419
2318,2.449088063
2319,2.406613977
2320,2.383657131
2321,2.511323541
2322,2.368513108
2323,2.378902806
2324,2.375649957
2325,2.395433872
2326,2.358355632
2327,2.40502313
2328,2.389291851
2329,2.388563675
2330,2.372728221
2331,2.3646194
2332,2.362481656
2333,2.442407243
2334,2.39145423
2335,2.485188733
2336,2.335050013
2337,2.392698553
2338,2.424638888
2339,2.399553901
2340,2.397718598
2341,2.35298424
2342,2.380509829
2343,2.349691538
2344,2.408388377
2345,2.361981894
2346,2.402929847
2347,2.460401841
2348,2.399604341
2349,2.396290016
2350,2.494808629
2351,2.443804779
2352,2.369964302
2353,2.396866277
2354,2.385335581
2355,2.452378736
2356,2.446634371
2357,2.361088974
2358,2.413674182
2359,2.412352203
2360,2.378067002
2361,2.398597217
2362,2.390657335
2363,2.383903572
2364,2.36155121
2365,2.429451631
2366,2.462733556
2367,2.419704404
2368,2.389672834
2369,2.382865758
2370,2.401847693
2371,2.454483404
2372,2.410761523
2373,2.434361298
2374,2.437032798
2375,2.434333908
2376,2.392771526
2377,2.368940826
2378,2.348075346
2379,2.379866936
2380,2.3786972
2381,2.469597955
2382,2.394791153
2383,2.348417097
2384,2.377766142
2385,2.370632473
2386,2.463311076
2387,2.429706506
2388,2.367456917
2389,2.352261514
2390,2.404363389
2391,2.393520338
2392,2.408800256
2393,2.439125965
2394,2.36842925
2395,2.361630888
2396,2.331667188
2397,2.416539397
2398,2.395426646
2399,2.417307324
2400,2.398399818
2401,2.469808734
2402,2.378520619
2403,2.409383354
2404,2.402249961
2405,2.370738687
2406,2.325667338
2407,2.383365716
2408,2.419133707
2409,2.367312291
2410,2.45265874
2411,2.348351826
2412,2.407917069
2413,2.385669325
2414,2.379806855
2415,2.376694759
2416,2.389694227
2417,2.356783812
2418,2.36909548
2419,2.419215156
2420,2.432536081
2421,2.430785323
2422,2.415216522
2423,2.442409251
2424,2.417604881
2425,2.362995927
2426,2.392839901
2427,2.426559552
2428,2.459509672
2429,2.419004646
2430,2.369800541
2431,2.468987564
2432,2.38366059
2433,2.427301988
2434,2.367959829
2435,2.383526121
2436,2.401933627
2437,2.425650603
2438,2.453745595
2439,2.413713573
2440,2.310874917
2441,2.371985327
2442,2.351501073
2443,2.351501328
2444,2.334407318
2445,2.371964562
2446,2.402832232
2447,2.376230249
2448,2.370878251
2449,2.386315852
2450,2.452467943
2451,2.397885574
2452,2.370802284
2453,2.41499041
2454,2.357475847
2455,2.388130843
2456,2.358019938
2457,2.455526266
2458,2.39599602
2459,2.410772546
2460,2.377808838
2461,2.390966934
2462,2.437276631
2463,2.441439721
2464,2.399383702
2465,2.441126516
2466,2.435024751
2467,2.292895408
2468,2.397014849
2469,2.416667192
2470,2.390736171
2471,2.433231734
2472,2.388172189
2473,2.36538303
2474,2.451950494
2475,2.438157143
2476,2.395740102
2477,2.407034353
2478,2.418965369
2479,2.428323432
2480,2.384813731
2481,2.42347939
2482,2.318082356
2483,2.441126484
2484,2.365049477
2485,2.353304531
2486,2.387385311
2487,2.380653921
2488,2.401927794
2489,2.361527159
2490,2.420370953
2491,2.439962851
2492,2.443317026
2493,2.417223521
2494,2.393758809
2495,2.422657635
2496,2.381342774
2497,2.357981069
2498,2.401592352
2499,2.393267521
2500,2.393002835
2501,2.41740989
2502,2.405543915
2503,2.380771498
2504,2.372221892
2505,2.324758697
2506,2.328771985
2507,2.414017395
2508,2.427878659
2509,2.468659626
2510,2.332997153
2511,2.375108447
2512,2.364949222
2513,2.441347538
2514,2.42843547
2515,2.406163523
2516,2.376780126
2517,2.385568206
2518,2.441791146
2519,2.455184757
2520,2.361943341
2521,2.403068433
2522,2.363754423
2523,2.414430378
2524,2.351827166
2525,2.333915168
2526,2.441203745
2527,2.420339988
2528,2.430114322
2529,2.394485567
2530,2.392916276
2531,2.414514078
2532,2.418041592
2533,2.394949341
2534,2.372448219
2535,2.385847587
2536,2.41728264
2537,2.365618632
2538,2.322580826
2539,2.356729537
2540,2.354554614
2541,2.417363278
2542,2.413436838
2543,2.406400748
2544,2.411774762
2545,2.407819079
2546,2.392452075
2547,2.384797397
2548,2.375815529
2549,2.420834705
2550,2.372856136
2551,2.382512019
2552,2.362886431
2553,2.387355401
2554,2.26215649
2555,2.379089947
2556,2.325100581
2557,2.298578542
2558,2.448677022
2559,2.388054609
2560,2.350987159
2561,2.464357899
2562,2.359759931
2563,2.361230445
2564,2.393664593
2565,2.400086696
2566,2.412425385
2567,2.42641265
2568,2.382527115
2569,2.490927457
2570,2.382800256
2571,2.359932632
2572,2.433191567
2573,2.450152947
2574,2.442629413
2575,2.406464262
2576,2.404210384
2577,2.366705126
2578,2.341404894
2579,2.455088533
2580,2.44457658
2581,2.349482155
2582,2.366529791
2583,2.397815222
2584,2.414541031
2585,2.370992896
2586,2.451823126
2587,2.365504831
2588,2.409269945
2589,2.457989533
2590,2.360524929
2591,2.378390567
2592,2.459041345
2593,2.419327871
2594,2.399529777
2595,2.359132822
2596,2.450470184
2597,2.410658353
2598,2.368737775
2599,2.360948289
2600,2.381424205
2601,2.369163154
2602,2.391583496
2603,2.386633669
2604,2.43089594
2605,2.404671844
2606,2.383384962
2607,2.402594585
2608,2.447034692
2609,2.416395572
2610,2.336430974
2611,2.352563364
2612,2.383780006
2613,2.414311299
2614,2.417723372
2615,2.424389953
2616,2.404928295
2617,2.425304124
2618,2.424600846
2619,2.443437336
2620,2.42671756
2621,2.395265914
2622,2.390223137
2623,2.323974248
2624,2.422648654
2625,2.407847577
2626,2.375331054
2627,2.44497445
2628,2.369606615
2629,2.482834252
2630,2.448106506
2631,2.426467053
2632,2.399259938
2633,2.389794137
2634,2.375188019
2635,2.419855688
2636,2.338777949
2637,2.433490576
2638,2.374314521
2639,2.326334446
2640,2.378070717
2641,2.362672883
2642,2.369294862
2643,2.381131295
2644,2.327143988
2645,2.382753704
2646,2.442731758
2647,2.446054554
2648,2.382840231
2649,2.427283215
2650,2.386104386
2651,2.410677349
2652,2.461744994
2653,2.468576432
2654,2.430379108
2655,2.377393275
2656,2.391059009
2657,2.427675393
2658,2.41010938
2659,2.38582877
2660,2.366173688
2661,2.370944251
2662,2.421896898
2663,2.391235218
2664,2.394493861
2665,2.383484992
2666,2.413781182
2667,2.354731783
2668,2.395048459
2669,2.372131533
2670,2.36617386
2671,2.449615644
2672,2.32854304
2673,2.436129252
2674,2.369530544
2675,2.386676831
2676,2.449054662
2677,2.438436686
2678,2.324491418
2679,2.369264384
2680,2.371184539
2681,2.395205799
2682,2.395963785
2683,2.447274197
2684,2.501861383
2685,2.391104993
2686,2.441617991
2687,2.426092531
2688,2.358358767
2689,2.447568363
2690,2.441972181
2691,2.397019832
2692,2.46135182
2693,2.48869172
2694,2.411175373
2695,2.403374752
2696,2.419976858
2697,2.379897272
2698,2.431164126
2699,2.452342295
2700,2.451886805
2701,2.42527838
2702,2.429437451
2703,2.350984126
2704,2.395276727
2705,2.420719683
2706,2.319082252
2707,2.341103805
2708,2.354574657
2709,2.491119289
2710,2.36876953
2711,2.430641572
2712,2.406977262
2713,2.428715746
2714,2.443148835
2715,2.394579199
2716,2.339734927
2717,2.387807514
2718,2.40490363
2719,2.435650457
2720,2.421871455
2721,2.422654084
2722,2.424696826
2723,2.461185868
2724,2.397901587
2725,2.404686157
2726,2.326468483
2727,2.389052181
2728,2.374670031
2729,2.450429901
2730,2.449143455
2731,2.425805146
2732,2.410071852
2733,2.429898374
2734,2.3624888
2735,2.416025358
2736,2.373589478
2737,2.409194056
2738,2.410208733
2739,2.49506054
2740,2.404189939
2741,2.429754543
2742,2.36640558
2743,2.439922808
2744,2.394687467
2745,2.386135473
2746,2.404550511
2747,2.385997125
2748,2.414097206
2749,2.418891756
2750,2.361770891
2751,2.454882528
2752,2.402916649
2753,2.477389888
2754,2.45309108
2755,2.33607868
2756,2.423115915
2757,2.38337757
2758,2.474565854
2759,2.363042069
2760,2.438240114
2761,2.456069195
2762,2.362350948
2763,2.429797486
2764,2.37670911
2765,2.411180326
2766,2.381551146
2767,2.407890956
2768,2.459534819
2769,2.443891935
2770,2.459457529
2771,2.38422232
2772,2.436674108
2773,2.451941539
2774,2.439394343
2775,2.41727079
2776,2.353698054
2777,2.39177184
2778,2.441875972
2779,2.358232542
2780,2.456644068
2781,2.397574633
2782,2.395500835
2783,2.422919714
2784,2.426299792
2785,2.371235854
2786,2.407422252
2787,2.397227524
2788,2.428389088
2789,2.384566159
2790,2.420939403
2791,2.429286701
2792,2.415692626
2793,2.425027629
2794,2.40932803
2795,2.424399075
2796,2.340926825
2797,2.361774467
2798,2.440981906
2799,2.333812262
2800,2.359799011
2801,2.465271676
2802,2.383925266
2803,2.41860041
2804,2.3756832
2805,2.326306301
2806,2.412741296
2807,2.457248859
2808,2.414991271
2809,2.310293142
2810,2.318440186
2811,2.461664451
2812,2.408012376
2813,2.432992324
2814,2.49499103
2815,2.317025526
2816,2.437730761
2817,2.339351455
2818,2.447669265
2819,2.425927686
2820,2.408351766
2821,2.381667236
2822,2.37538031
2823,2.35315405
2824,2.460464969
2825,2.349246096
2826,2.320088423
2827,2.457470214
2828,2.371358125
2829,2.404317529
2830,2.382137034
2831,2.427679646
2832,2.393309747
2833,2.438042537
2834,2.474010107
2835,2.345493805
2836,2.376259061
2837,2.445468946
2838,2.363557983
2839,2.466335757
2840,2.454506273
2841,2.423701281
2842,2.407284575
2843,2.35687938
2844,2.380120158
2845,2.399041994
2846,2.361889204
2847,2.413865387
2848,2.334044235
2849,2.320932328
2850,2.427373812
2851,2.409671891
2852,2.381347277
2853,2.362792156
2854,2.413747633
2855,2.375011221
2856,2.364369547
2857,2.327337796
2858,2.389484502
2859,2.406862992
2860,2.334597884
2861,2.37452653
2862,2.398973308
2863,2.430422148
2864,2.436128898
2865,2.382854596
2866,2.404469115
2867,2.448018888
2868,2.350264839
2869,2.416174915
2870,2.400527812
2871,2.409017922
2872,2.377939721
2873,2.380700044
2874,2.391348008
2875,2.370265691
2876,2.420114294
2877,2.439682972
2878,2.353412794
2879,2.400483099
2880,2.384242622
2881,2.400920976
2882,2.395366008
2883,2.395810934
2884,2.375686633
2885,2.357422188
2886,2.374063942
2887,2.413792873
2888,2.390581468
2889,2.429171364
2890,2.467760139
2891,2.409538172
2892,2.41746544
2893,2.448905477
2894,2.363050821
2895,2.366732969
2896,2.448347924
2897,2.386424762
2898,2.412753968
2899,2.358912567
2900,2.395906237
2901,2.398131497
2902,2.380000692
2903,2.396743892
2904,2.421566405
2905,2.382766064
2906,2.394462092
2907,2.396720637
2908,2.364875346
2909,2.361594318
2910,2.421497814
2911,2.412763258
2912,2.423579082
2913,2.408171068
2914,2.369339467
2915,2.377434516
2916,2.380532197
2917,2.400233731
2918,2.419577513
2919,2.342579851
2920,2.436999098
2921,2.354233786
2922,2.355607947
2923,2.3200913
2924,2.453446379
2925,2.478813804
2926,2.43095171
2927,2.398468061
2928,2.523112065
2929,2.490450929
2930,2.35485223
2931,2.433902344
2932,2.444539915
2933,2.417131604
2934,2.424794413
2935,2.352060391
2936,2.326750467
2937,2.405090071
2938,2.343230118
2939,2.399977302
2940,2.357408345
2941,2.398903712
2942,2.404399293
2943,2.409178436
2944,2.419974328
2945,2.412511654
2946,2.495968022
2947,2.33818928
2948,2.376711977
2949,2.402038541
2950,2.341092173
2951,2.428983278
2952,2.293493075
2953,2.384214369
2954,2.406320177
2955,2.327653715
2956,2.448854033
2957,2.392733455
2958,2.387810745
2959,2.330179598
2960,2.383466175
2961,2.367824307
2962,2.351680063
2963,2.357551243
2964,2.391722899
2965,2.403013207
2966,2.446775158
2967,2.400575477
2968,2.413835268
2969,2.401457599
2970,2.370894913
2971,2.447701477
2972,2.459571678
2973,2.373312867
2974,2.375314295
2975,2.436372341
2976,2.368572958
2977,2.477566148
2978,2.368338891
2979,2.384408493
2980,2.426119303
2981,2.390591047
2982,2.396189873
2983,2.374698101
2984,2.419056541
2985,2.455465272
2986,2.403839141
2987,2.409795492
2988,2.501995081
2989,2.310828425
2990,2.395788758
2991,2.43647968
2992,2.436086866
2993,2.305952274
2994,2.3645224
2995,2.386409133
2996,2.41780755
2997,2.375018999
2998,2.467735152
2999,2.292248826
3000,2.425172373
3001,2.365173908
3002,2.410910494
3003,2.416395066
3004,2.434888723
3005,2.350172431
3006,2.476699745
3007,2.375610787
3008,2.368772111
3009,2.369768339
3010,2.383023639
3011,2.398588583
3012,2.33328726
3013,2.369854342
3014,2.389692373
3015,2.401331857
3016,2.414051845
3017,2.397234858
3018,2.416220143
3019,2.349118688
3020,2.390721002
3021,2.385002485
3022,2.394033727
3023,2.420699889
3024,2.39067732
3025,2.419917379
3026,2.39762025
3027,2.419611878
3028,2.421308597
3029,2.372405292
3030,2.341028407
3031,2.371422982
3032,2.407048436
3033,2.315482591
3034,2.363395921
3035,2.502378538
3036,2.387128154
3037,2.377193262
3038,2.388226875
3039,2.377898278
3040,2.435061962
3041,2.424150258
3042,2.411765287
3043,2.358128041
3044,2.404502448
3045,2.285596502
3046,2.441716135
3047,2.480772565
3048,2.41412208
3049,2.459914704
3050,2.386854225
3051,2.341197195
3052,2.400579634
3053,2.438748103
3054,2.46967767
3055,2.316247417
3056,2.40441115
3057,2.40897452
3058,2.462611386
3059,2.371602407
3060,2.391511726
3061,2.367076968
3062,2.388964932
3063,2.518582299
3064,2.492112786
3065,2.322619031
3066,2.353031076
3067,2.419738901
3068,2.446220643
3069,2.431935481
3070,2.434944516
3071,2.37191651
3072,2.320465183
3073,2.47371485
3074,2.333155331
3075,2.370752399
3076,2.437890719
3077,2.404698817
3078,2.357296275
3079,2.478395673
3080,2.407978244
3081,2.420625992
3082,2.378444732
3083,2.392158022
3084,2.372184596
3085,2.408486102
3086,2.406023587
3087,2.411208156
3088,2.406286501
3089,2.386594382
3090,2.415789264
3091,2.473277712
3092,2.428474205
3093,2.412227517
3094,2.352707373
3095,2.404927163
3096,2.338404524
3097,2.41040991
3098,2.370287062
3099,2.401871812
3100,2.466320902
3101,2.397854263
3102,2.373910679
3103,2.403365773
3104,2.442582792
3105,2.313264827
3106,2.419668707
3107,2.378442302
3108,2.427451835
3109,2.396376253
3110,2.309836305
3111,2.413468717
3112,2.344489715
3113,2.39125749
3114,2.390866769
3115,2.406874905
3116,2.407741713
3117,2.428720496
3118,2.34811001
3119,2.397584825
3120,2.430092303
3121,2.410275756
3122,2.436808919
3123,2.42509405
3124,2.341774234
3125,2.329673664
3126,2.402400958
3127,2.345585924
3128,2.419904478
3129,2.356962343
3130,2.406218294
3131,2.388166575
3132,2.39993721
3133,2.409355892
3134,2.418607007
3135,2.369926306
3136,2.432477791
3137,2.378977256
3138,2.415587479
3139,2.395223782
3140,2.426952936
3141,2.381740778
3142,2.378234734
3143,2.393481389
3144,2.45593522
3145,2.421491708
3146,2.461174435
3147,2.387071055
3148,2.434982609
3149,2.478369106
3150,2.471511832
3151,2.418067493
3152,2.382327429
3153,2.460519414
3154,2.421501031
3155,2.432482767
3156,2.403493961
3157,2.358618702
3158,2.442315971
3159,2.348006894
3160,2.368319206
3161,2.415275541
3162,2.35037616
3163,2.400725331
3164,2.412855832
3165,2.485534645
3166,2.388794197
3167,2.38542573
3168,2.417026004
3169,2.355379697
3170,2.42791405
3171,2.381108934
3172,2.356858634
3173,2.432390321
3174,2.411242466
3175,2.44554187
3176,2.362260977
3177,2.464910721
3178,2.337644364
3179,2.376296079
3180,2.37401389
3181,2.373239957
3182,2.402106222
3183,2.436984098
3184,2.37161598
3185,2.414394257
3186,2.320070062
3187,2.414819963
3188,2.411737693
3189,2.377889428
3190,2.28847404
3191,2.399605549
3192,2.346818938
3193,2.461663239
3194,2.462553628
3195,2.382737443
3196,2.446974886
3197,2.281450569
3198,2.421312324
3199,2.411819531
3200,2.421219197
3201,2.380571599
3202,2.422599504
3203,2.408793828
3204,2.477812666
3205,2.413743023
3206,2.399740696
3207,2.404343499
3208,2.395801383
3209,2.351990342
3210,2.347990769
3211,2.468075873
3212,2.396289182
3213,2.401027594
3214,2.39377611
3215,2.445940405
3216,2.399923733
3217,2.412891143
3218,2.420943304
3219,2.434710495
3220,2.353884573
3221,2.371844531
3222,2.353777667
3223,2.412774665
3224,2.431869892
3225,2.372635541
3226,2.437677184
3227,2.395364445
3228,2.367379238
3229,2.456459565
3230,2.344134601
3231,2.419849809
3232,2.433611155
3233,2.398762543
3234,2.475323563
3235,2.4340615
3236,2.429113988
3237,2.443241979
3238,2.360566831
3239,2.473675379
3240,2.374922757
3241,2.386470513
3242,2.393740922
3243,2.450420928
3244,2.332538096
3245,2.425644967
3246,2.385672521
3247,2.427264271
3248,2.355640904
3249,2.438060241
3250,2.435244111
3251,2.433915499
3252,2.426102236
3253,2.463824778
3254,2.425791004
3255,2.461961415
3256,2.499572898
3257,2.365091472
3258,2.369491564
3259,2.433763916
3260,2.389793469
3261,2.407819083
3262,2.340198941
3263,2.413835377
3264,2.378650574
3265,2.388288862
3266,2.375946092
3267,2.486049859
3268,2.441173113
3269,2.41615238
3270,2.442024593
3271,2.363585353
3272,2.382608731
3273,2.418988223
3274,2.427012152
3275,2.394912202
3276,2.34608223
3277,2.340707733
3278,2.478772596
3279,2.42691947
3280,2.398787427
3281,2.386143811
3282,2.382284339
3283,2.363501318
3284,2.331657979
3285,2.503475179
3286,2.389897203
3287,2.376861236
3288,2.374707448
3289,2.406803056
3290,2.408859959
3291,2.30879378
3292,2.4086756
3293,2.388971697
3294,2.402466836
3295,2.374666394
3296,2.418427627
3297,2.448255938
3298,2.346030227
3299,2.365977605
3300,2.419505143
3301,2.443232315
3302,2.380564535
3303,2.336342671
3304,2.412213794
3305,2.328315594
3306,2.457890102
3307,2.345884082
3308,2.454609168
3309,2.439784511
3310,2.378501641
3311,2.396829047
3312,2.398140734
3313,2.332932096
3314,2.390589835
3315,2.378838307
3316,2.435007996
3317,2.413064849
3318,2.352137709
3319,2.355542701
3320,2.498121902
3321,2.450143174
3322,2.396147063
3323,2.379958153
3324,2.402947074
3325,2.376118629
3326,2.483328572
3327,2.415832028
3328,2.482498485
3329,2.409877925
3330,2.336704694
3331,2.437818145
3332,2.389674831
3333,2.464292007
3334,2.4444482
3335,2.443319927
3336,2.383192852
3337,2.394735196
3338,2.453826157
3339,2.396356168
3340,2.401850379
3341,2.357435787
3342,2.441412531
3343,2.348943852
3344,2.347962698
3345,2.378485986
3346,2.400416056
3347,2.387776955
3348,2.407197764
3349,2.355612002
3350,2.384817942
3351,2.446543009
3352,2.436123568
3353,2.351095283
3354,2.446964961
3355,2.410160549
3356,2.33049105
3357,2.375397961
3358,2.391573404
3359,2.432278614
3360,2.42358512
3361,2.49961801
3362,2.370560617
3363,2.38472286
3364,2.317626539
3365,2.436242137
3366,2.433138763
3367,2.415796594
3368,2.409400632
3369,2.405248878
3370,2.39880992
3371,2.42106143
3372,2.438095203
3373,2.397290622
3374,2.361870468
3375,2.396520382
3376,2.442867627
3377,2.363777209
3378,2.381583799
3379,2.459086949
3380,2.455626491
3381,2.370712944
3382,2.430177888
3383,2.406333532
3384,2.417820295
3385,2.442911822
3386,2.406856992
3387,2.460638658
3388,2.455890035
3389,2.336474466
3390,2.364352888
3391,2.461332107
3392,2.340678356
3393,2.448387318
3394,2.472422246
3395,2.400397222
3396,2.403088471
3397,2.398416776
3398,2.374618194
3399,2.377884194
3400,2.380822547
3401,2.350069423
3402,2.408722619
3403,2.398171192
3404,2.413443768
3405,2.369226177
3406,2.404526188
3407,2.36504574
3408,2.33050373
3409,2.305277079
3410,2.392026493
3411,2.363488481
3412,2.401834997
3413,2.402923145
3414,2.433132622
3415,2.382673993
3416,2.449073368
3417,2.413097692
3418,2.378014057
3419,2.442740267
3420,2.482389551
3421,2.454438959
3422,2.470031817
3423,2.333678664
3424,2.399625977
3425,2.430269415
3426,2.418661945
3427,2.339024817
3428,2.414993311
3429,2.375473792
3430,2.411842045
3431,2.374439411
3432,2.381558121
3433,2.388865459
3434,2.487794466
3435,2.331910544
3436,2.345418847
3437,2.399721707
3438,2.430059587
3439,2.379371493
3440,2.435166105
3441,2.421453765
3442,2.381952718
3443,2.450518556
3444,2.365096196
3445,2.378009818
3446,2.421709168
3447,2.361056251
3448,2.440448678
3449,2.409436219
3450,2.405038222
3451,2.393541923
3452,2.456946388
3453,2.458948309
3454,2.423900028
3455,2.374492977
3456,2.378549553
3457,2.428631823
3458,2.439346347
3459,2.470254533
3460,2.426054675
3461,2.370116138
3462,2.372548228
3463,2.415074581
3464,2.395093199
3465,2.371449186
3466,2.451390468
3467,2.342051579
3468,2.432600062
3469,2.426474266
3470,2.400493407
3471,2.422038452
3472,2.375520254
3473,2.358331106
3474,2.42405966
3475,2.39415112
3476,2.402860179
3477,2.419299577
3478,2.418577631
3479,2.53549028
3480,2.390488067
3481,2.399568595
3482,2.372950113
3483,2.412291413
3484,2.310778297
3485,2.425757405
3486,2.439503355
3487,2.41786056
3488,2.401658621
3489,2.366156416
3490,2.390403959
3491,2.383207068
3492,2.418900133
3493,2.371522078
3494,2.399038427
3495,2.412582587
3496,2.395908317
3497,2.396985431
3498,2.408584734
3499,2.478527319
3500,2.375559033
3501,2.419424125
3502,2.320710193
3503,2.425441631
3504,2.393531639
3505,2.365800113
3506,2.340439532
3507,2.447368701
3508,2.432547581
3509,2.339131769
3510,2.441200867
3511,2.377066622
3512,2.389140746
3513,2.381220591
3514,2.355117677
3515,2.395602692
3516,2.36923538
3517,2.419068159
3518,2.394330142
3519,2.474022234
3520,2.304927457
3521,2.41790121
3522,2.428188359
3523,2.402324519
3524,2.406074612
3525,2.427718255
3526,2.432202015
3527,2.460089333
3528,2.380626575
3529,2.4521819
3530,2.452529366
3531,2.403183989
3532,2.358800771
3533,2.438297171
3534,2.410996558
3535,2.494605767
3536,2.38026517
3537,2.394996387
3538,2.396123994
3539,2.440528015
3540,2.36904219
3541,2.322314941
3542,2.382117001
3543,2.441291023
3544,2.386307131
3545,2.373864857
3546,2.398299567
3547,2.374573636
3548,2.439336953
3549,2.353877846
3550,2.393074547
3551,2.36417602
3552,2.441481287
3553,2.412448639
3554,2.420255386
3555,2.433160894
3556,2.436164385
3557,2.386434426
3558,2.40669405
3559,2.394449551
3560,2.355127919
3561,2.377533587
3562,2.430560166
3563,2.38283589
3564,2.367265864
3565,2.421465803
3566,2.46562808
3567,2.403179129
3568,2.370545849
3569,2.414370559
3570,2.389089527
3571,2.416109904
3572,2.494107133
3573,2.385970911
3574,2.388331808
3575,2.504861207
3576,2.352528396
3577,2.433961282
3578,2.448082238
3579,2.350909966
3580,2.404990935
3581,2.396630329
3582,2.503506855
3583,2.431421138
3584,2.373783177
3585,2.457809599
3586,2.384981222
3587,2.387264797
3588,2.406827409
3589,2.411349531
3590,2.445955826
3591,2.428324257
3592,2.473274425
3593,2.408638173
3594,2.44353555
3595,2.377933962
3596,2.423790275
3597,2.414854724
3598,2.421132178
3599,2.422422336
3600,2.422630002
3601,2.522924543
3602,2.520340589
3603,2.494850743
3604,2.50392596
3605,2.543970162
3606,2.600594805
3607,2.613860963
3608,2.623473961
3609,2.547795172
3610,2.693705223
3611,2.777044679
3612,2.759494222
3613,2.742130596
3614,2.74712524
3615,2.833524953
3616,2.903500962
3617,2.860583435
3618,2.932090401
3619,2.987680127
3620,2.979302487
3621,2.999806085
3622,3.028174709
3623,3.076078841
3624,3.067861986
3625,3.064634974
3626,3.176401965
3627,3.160371832
3628,3.227437706
3629,3.149243529
3630,3.167216874
3631,3.184250846
3632,3.214743343
3633,3.204155623
3634,3.186482956
3635,3.136278462
3636,3.223119263
3637,3.114853812
3638,3.135207515
3639,3.115180054
3640,3.098447668
3641,3.046741533
3642,3.089149399
3643,3.003905535
3644,2.938212631
3645,2.970852904
3646,2.893913214
3647,2.921341711
3648,2.857318513
3649,2.868900292
3650,2.74514518
3651,2.844392
3652,2.695867346
3653,2.723303359
3654,2.716407343
3655,2.629727306
3656,2.660900602
3657,2.655558513
3658,2.573573643
3659,2.606314258
3660,2.642791265
3661,2.595588112
3662,2.532910128
3663,2.568516805
3664,2.515338737
3665,2.536816915
3666,2.625272055
3667,2.540379787
3668,2.660904816
3669,2.646270197
3670,2.684850842
3671,2.688715842
3672,2.716175679
3673,2.768794589
3674,2.81638331
3675,2.855418176
3676,2.822441342
3677,2.878913053
3678,2.884752899
3679,2.964151837
3680,2.971148659
3681,2.949760049
3682,3.057953733
3683,3.095260793
3684,3.081752867
3685,3.170127283
3686,3.176811672
3687,3.158756724
3688,3.305656408
3689,3.29992044
3690,3.312684265
3691,3.326784291
3692,3.464237834
3693,3.447298283
3694,3.431824375
3695,3.443440621
3696,3.407930063
3697,3.337792549
3698,3.446373512
3699,3.375978828
3700,3.374117421
3701,3.370997805
3702,3.332228786
3703,3.269027981
3704,3.233757738
3705,3.22982672
3706,3.286443782
3707,3.183515263
3708,3.12695296
3709,3.137149198
3710,2.949076818
3711,3.009623455
3712,2.971610046
3713,2.953359387
3714,2.921924147
3715,2.873466696
3716,2.852542644
3717,2.792983344
3718,2.709210712
3719,2.783214784
3720,2.649294688
3721,2.635124949
3722,2.592169503
3723,2.570931175
3724,2.613766413
3725,2.517389767
3726,2.537565031
3727,2.477731115
3728,2.502325489
3729,2.461179499
3730,2.523020797
3731,2.500086246
3732,2.426575005
3733,2.449618278
3734,2.443344117
3735,2.434961433
3736,2.410984932
3737,2.41458297
3738,2.385655318
3739,2.44349115
3740,2.364144928
3741,2.434529528
3742,2.376906305
3743,2.445266098
3744,2.493235417
3745,2.395507437
3746,2.400532932
3747,2.394561955
3748,2.383437787
3749,2.450263795
3750,2.461830551
3751,2.467830291
3752,2.426773996
3753,2.407257069
3754,2.392802537
3755,2.416889052
3756,2.405632358
3757,2.423425363
3758,2.392601679
3759,2.471535404
3760,2.414631728
3761,2.43385222
3762,2.45124518
3763,2.409638393
3764,2.366115091
3765,2.386298337
3766,2.386392633
3767,2.333252254
3768,2.437065242
3769,2.439577823
3770,2.375979306
3771,2.33937283
3772,2.404089406
3773,2.389020106
3774,2.475453026
3775,2.432192749
3776,2.374004066
3777,2.365820936
3778,2.459062338
3779,2.421217974
3780,2.351872839
3781,2.353047746
3782,2.408545947
3783,2.411880955
3784,2.458664818
3785,2.397002253
3786,2.423181164
3787,2.447046383
3788,2.408824707
3789,2.429930921
3790,2.381950564
3791,2.36234925
3792,2.441934307
3793,2.412411103
3794,2.473881025
3795,2.412212391
3796,2.40969761
3797,2.375432887
3798,2.431366593
3799,2.379582902
3800,2.323520609
3801,2.420688221
3802,2.272491081
3803,2.397092942
3804,2.349135829
3805,2.351454671
3806,2.41548659
3807,2.338762276
3808,2.418679394
3809,2.350916736
3810,2.467915984
3811,2.418860061
3812,2.461791695
3813,2.489897251
3814,2.423074065
3815,2.420591567
3816,2.37095226
3817,2.456944723
3818,2.342682648
3819,2.394579133
3820,2.45210449
3821,2.41043478
3822,2.418868051
3823,2.391419182
3824,2.362140598
3825,2.312539403
3826,2.48455662
3827,2.422557707
3828,2.401758512
3829,2.411071588
3830,2.465943317
3831,2.358522007
3832,2.477190753
3833,2.393570781
3834,2.387239267
3835,2.401827565
3836,2.389772856
3837,2.452850656
3838,2.430479679
3839,2.433913806
3840,2.435433719
3841,2.426946725
3842,2.366600881
3843,2.467602882
3844,2.463085243
3845,2.456097952
3846,2.33946376
3847,2.392143186
3848,2.43836013
3849,2.414020807
3850,2.377483008
3851,2.462370485
3852,2.369799594
3853,2.447031509
3854,2.402174423
3855,2.382474731
3856,2.402040365
3857,2.384146086
3858,2.379688984
3859,2.350936433
3860,2.425387629
3861,2.347370191
3862,2.401994612
3863,2.38569908
3864,2.421609359
3865,2.383691855
3866,2.38815821
3867,2.481599792
3868,2.397956856
3869,2.442917394
3870,2.428762712
3871,2.37040612
3872,2.430852356
3873,2.405805897
3874,2.342556596
3875,2.389639893
3876,2.420053995
3877,2.396388216
3878,2.372106573
3879,2.412266084
3880,2.370094879
3881,2.361820946
3882,2.414618058
3883,2.404502665
3884,2.425209968
3885,2.451036168
3886,2.372403451
3887,2.408468403
3888,2.390772055
3889,2.407335679
3890,2.363925811
3891,2.395464715
3892,2.420248936
3893,2.426773147
3894,2.433706501
3895,2.433362854
3896,2.361947338
3897,2.409355783
3898,2.334057362
3899,2.382657685
3900,2.429621176
3901,2.3878721
3902,2.35498588
3903,2.38834353
3904,2.364394383
3905,2.399449177
3906,2.394570168
3907,2.446792731
3908,2.404668148
3909,2.471384644
3910,2.433339095
3911,2.343256082
3912,2.440587768
3913,2.392542997
3914,2.473591294
3915,2.425595392
3916,2.406332947
3917,2.494273961
3918,2.348337253
3919,2.419334153
3920,2.413969641
3921,2.370542935
3922,2.360653438
3923,2.342910112
3924,2.440578717
3925,2.450375182
3926,2.364810214
3927,2.375352127
3928,2.334134664
3929,2.411208985
3930,2.39291783
3931,2.361279482
3932,2.401622775
3933,2.351810149
3934,2.368733927
3935,2.411970605
3936,2.447518607
3937,2.357612556
3938,2.417714951
3939,2.457278713
3940,2.370206522
3941,2.417409512
3942,2.423209838
3943,2.370763874
3944,2.431934301
3945,2.437011424
3946,2.43018625
3947,2.499536699
3948,2.377739855
3949,2.396706332
3950,2.416784464
3951,2.430548685
3952,2.380843897
3953,2.411915849
3954,2.425327005
3955,2.371829638
3956,2.369612261
3957,2.409168859
3958,2.322171286
3959,2.401797535
3960,2.445729725
3961,2.352798946
3962,2.432272387
3963,2.389512115
3964,2.418404496
3965,2.345173323
3966,2.424692929
3967,2.417629209
3968,2.37731423
3969,2.432119269
3970,2.434613214
3971,2.428485811
3972,2.412027805
3973,2.398348239
3974,2.460063654
3975,2.412236948
3976,2.352428745
3977,2.471601818
3978,2.382660717
3979,2.394656392
3980,2.396371858
3981,2.343520409
3982,2.438190682
3983,2.364283441
3984,2.476720732
3985,2.400482919
3986,2.434694677
3987,2.380666569
3988,2.352097879
3989,2.367997788
3990,2.374783155
3991,2.419972528
3992,2.339388505
3993,2.377490636
3994,2.473591628
3995,2.371644098
3996,2.444313546
3997,2.445987099
3998,2.398748561
3999,2.42554657
4000,2.388939023
