Raman Shift,Intensity
89.10095,190.1428
89.58307,191.7444
90.06519,193.4372
90.5473,196.9783
91.02942,203.9847
91.51154,210.1131
91.99365,209.2582
92.47577,202.578
92.95789,195.9461
93.44,194.0661
93.92212,195.3545
94.40424,195.5904
94.88635,194.0793
95.36847,191.4713
95.85059,188.8033
96.3327,185.9997
96.81482,183.6315
97.29694,182.0962
97.77905,181.3706
98.26117,181.8023
98.74329,184.0865
99.2254,187.779
99.70752,189.4675
100.1896,188.6913
100.6718,186.9085
101.1539,185.9125
101.636,185.8456
102.1181,185.9919
102.6002,185.9709
103.0823,185.576
103.5645,186.2226
104.0466,187.818
104.5287,190.4704
105.0108,194.5661
105.4929,200.7485
105.975,207.3911
106.4572,214.2125
106.9393,223.7983
107.4214,228.8933
107.9035,227.5095
108.3856,221.4349
108.8677,216.9677
109.3499,214.6087
109.832,213.4217
110.3141,213.0051
110.7962,213.5775
111.2783,214.6455
111.7604,216.1673
112.2426,218.1571
112.7247,220.6298
113.2068,223.4323
113.6889,226.8072
114.171,230.8975
114.6531,237.6964
115.1353,243.3474
115.6174,246.2024
116.0995,246.2368
116.5816,246.5757
117.0637,249.2204
117.5458,252.4987
118.028,254.6253
118.5101,253.7531
118.9922,252.3178
119.4743,251.6582
119.9564,251.8828
120.4385,252.6335
120.9207,252.9544
121.4028,253.6861
121.8849,256.2955
122.367,264.7109
122.8491,273.976
123.3312,278.4116
123.8134,276.6266
124.2955,272.9312
124.7776,270.7518
125.2597,269.8798
125.7418,269.5914
126.2239,269.3315
126.7061,269.3875
127.1882,270.3472
127.6703,272.4456
128.1524,275.2238
128.6345,278.2247
129.1166,281.4231
129.5988,284.5707
130.0809,287.9584
130.563,291.2777
131.0451,293.114
131.5272,292.6552
132.0093,290.9213
132.4915,290.2623
132.9736,290.7455
133.4557,291.6816
133.9378,292.4316
134.4199,292.9995
134.902,293.8352
135.3842,295.0945
135.8663,296.6905
136.3484,298.0596
136.8305,298.8832
137.3126,300.3827
137.7947,304.575
138.2769,312.3051
138.759,318.4583
139.2411,321.5073
139.7232,321.4255
140.2053,320.0282
140.6874,316.8159
141.1696,312.922
141.6517,309.8536
142.1338,307.7193
142.6159,306.1656
143.098,305.1375
143.5801,304.7167
144.0623,304.5337
144.5444,304.5845
145.0265,304.8983
145.5086,305.5916
145.9907,307.3155
146.4728,308.5822
146.955,308.884
147.4371,307.862
147.9192,306.6773
148.4013,305.0511
148.8834,303.2961
149.3655,302.0804
149.8477,301.712
150.3298,301.6263
150.8119,301.6519
151.294,302.1043
151.7761,302.1981
152.2583,301.3549
152.7404,300.0576
153.2225,299.6828
153.7046,301.8467
154.1867,303.8812
154.6688,304.5518
155.151,302.7807
155.6331,300.8105
156.1152,298.7935
156.5973,296.7901
157.0794,295.0851
157.5615,293.8138
158.0437,292.7991
158.5258,291.9289
159.0079,291.3058
159.49,290.6939
159.9721,289.8143
160.4542,288.7833
160.9364,288.2764
161.4185,289.0673
161.9006,290.2278
162.3827,291.0111
162.8648,291.185
163.3469,290.9476
163.8291,290.329
164.3112,289.346
164.7933,288.1119
165.2754,286.182
165.7575,284.2014
166.2396,282.8485
166.7218,282.6344
167.2039,282.9181
167.686,283.4711
168.1681,284.2712
168.6502,284.9461
169.1323,285.3674
169.6145,285.4938
170.0966,285.2627
170.5787,284.3331
171.0608,283.2276
171.5429,282.4594
172.025,282.0497
172.5072,281.5986
172.9893,280.7091
173.4714,279.5566
173.9535,278.464
174.4356,277.6056
174.9177,276.8712
175.3999,276.106
175.882,275.2901
176.3641,274.5247
176.8462,273.9541
177.3283,273.4971
177.8104,272.9452
178.2926,272.1483
178.7747,271.2065
179.2568,270.3467
179.7389,269.6193
180.221,268.734
180.7031,267.2156
181.1853,265.221
181.6674,263.3641
182.1495,262.0955
182.6316,261.1879
183.1137,260.1109
183.5958,258.7908
184.078,257.4623
184.5601,256.4257
185.0422,255.6699
185.5243,254.9699
186.0064,254.488
186.4885,254.025
186.9707,252.7206
187.4528,250.3279
187.9349,247.6241
188.417,245.8334
188.8991,244.9114
189.3812,244.0974
189.8634,242.9003
190.3455,241.4111
190.8276,240.2168
191.3097,239.4007
191.7918,238.7529
192.2739,237.8451
192.7561,236.6475
193.2382,235.5782
193.7203,234.9595
194.2024,234.749
194.6845,234.3322
195.1666,233.6228
195.6488,232.7632
196.1309,232.0636
196.613,231.5419
197.0951,230.9666
197.5772,230.1494
198.0593,229.0872
198.5415,228.1477
199.0236,227.3902
199.5057,226.7288
199.9878,225.9055
200.4699,224.8417
200.952,224.0059
201.4342,223.8113
201.9163,224.3307
202.3984,224.5931
202.8805,224.55
203.3626,224.2022
203.8447,223.4887
204.3269,222.3324
204.809,221.0797
205.2911,219.8427
205.7732,218.5538
206.2553,217.7346
206.7374,217.5641
207.2196,217.7876
207.7017,217.6749
208.1838,217.1095
208.6659,216.5295
209.148,216.246
209.6301,216.3774
210.1123,216.2314
210.5944,215.681
211.0765,214.8758
211.5586,214.2441
212.0407,213.8288
212.5228,213.4896
213.005,213.1361
213.4871,212.726
213.9692,212.4827
214.4513,212.5126
214.9334,212.6802
215.4155,212.5677
215.8977,212.0903
216.3798,211.4904
216.8619,210.86
217.344,210.1279
217.8261,209.6122
218.3082,209.4641
218.7904,209.5015
219.2725,209.1131
219.7546,208.0405
220.2367,207.0097
220.7188,206.4161
221.2009,206.3932
221.6831,206.4491
222.1652,206.5969
222.6473,206.8118
223.1294,207.0287
223.6115,207.3089
224.0936,207.5039
224.5758,207.5435
225.0579,207.4014
225.54,207.185
226.0221,206.9419
226.5042,206.6157
226.9863,206.0246
227.4685,204.9802
227.9506,203.9523
228.4327,203.1733
228.9148,202.7856
229.3969,202.2565
229.879,201.3517
230.3612,200.368
230.8433,200.1365
231.3254,201.1541
231.8075,202.1638
232.2896,202.6129
232.7717,202.2773
233.2539,201.8958
233.736,201.3463
234.2181,200.7954
234.7002,200.7024
235.1823,201.5118
235.6644,202.0998
236.1466,201.966
236.6287,200.7915
237.1108,199.7449
237.5929,198.8008
238.075,198.0097
238.5571,197.4976
239.0393,197.3479
239.5214,197.3521
240.0035,197.5052
240.4856,197.9965
240.9677,198.0403
241.4498,197.3774
241.932,196.4089
242.4141,195.8559
242.8962,195.9627
243.3783,196.0939
243.8604,195.9942
244.3425,195.5181
244.8247,195.4043
245.3068,195.9741
245.7889,196.708
246.271,196.6843
246.7531,195.2309
247.2352,194.1831
247.7174,194.2804
248.1995,195.8881
248.6816,196.7521
249.1637,196.5687
249.6458,195.8654
250.1279,195.3808
250.6101,195.1982
251.0922,195.063
251.5743,194.8901
252.0564,194.6543
252.5385,194.5762
253.0206,194.7444
253.5028,194.9895
253.9849,195.0772
254.467,194.8755
254.9491,194.8032
255.4312,194.9846
255.9133,195.4316
256.3955,195.9267
256.8776,196.6486
257.3597,197.2186
257.8418,197.1447
258.3239,196.0368
258.8061,195.2052
259.2882,194.9306
259.7703,195.207
260.2524,195.6507
260.7345,196.4345
261.2166,197.1492
261.6988,197.3793
262.1809,196.9211
262.663,196.5518
263.1451,196.4131
263.6272,196.4848
264.1093,196.6107
264.5915,196.8403
265.0736,197.043
265.5557,197.0499
266.0378,196.7196
266.5199,196.7449
267.002,197.4146
267.4842,198.5193
267.9663,198.8679
268.4484,198.1868
268.9305,197.378
269.4126,197.103
269.8947,197.5019
270.3769,197.8194
270.859,198.0183
271.3411,198.0727
271.8232,197.7871
272.3053,196.9886
272.7874,196.3732
273.2696,196.4853
273.7517,197.4895
274.2338,198.1153
274.7159,198.2076
275.198,197.9637
275.6801,197.8422
276.1623,197.8777
276.6444,197.887
277.1265,197.7545
277.6086,197.4648
278.0907,197.2479
278.5728,197.1331
279.055,197.0549
279.5371,196.917
280.0192,196.7238
280.5013,196.433
280.9834,195.9436
281.4655,195.2651
281.9477,194.8584
282.4298,194.7973
282.9119,194.8183
283.394,194.5337
283.8761,193.9344
284.3582,193.307
284.8404,192.6842
285.3225,192.1012
285.8046,191.892
286.2867,192.1423
286.7688,192.3641
287.2509,191.8695
287.7331,190.7185
288.2152,189.7631
288.6973,189.3945
289.1794,189.3842
289.6615,188.9085
290.1436,187.9255
290.6258,186.9669
291.1079,186.6827
291.59,186.923
292.0721,186.8354
292.5542,186.0944
293.0363,185.0126
293.5185,184.2581
294.0006,183.8207
294.4827,183.3923
294.9648,182.5682
295.4469,181.5284
295.929,180.8777
296.4112,180.8025
296.8933,181.0153
297.3754,181.101
297.8575,181.0784
298.3396,181.0738
298.8217,181.3525
299.3039,181.6805
299.786,181.4965
300.2681,180.5981
300.7502,179.5859
301.2323,179.2763
301.7144,179.4811
302.1966,179.5701
302.6787,179.174
303.1608,178.4753
303.6429,177.6052
304.125,176.535
304.6071,175.6453
305.0893,175.4113
305.5714,175.6211
306.0535,175.8379
306.5356,175.9808
307.0177,175.9739
307.4998,175.6181
307.982,174.9065
308.4641,174.3308
308.9462,174.3659
309.4283,174.7208
309.9104,175.0006
310.3925,175.0769
310.8747,175.0157
311.3568,174.799
311.8389,174.4498
312.321,174.1336
312.8031,173.9629
313.2852,173.8571
313.7674,173.7341
314.2495,173.5309
314.7316,173.3615
315.2137,173.3628
315.6958,173.4636
316.1779,173.4256
316.6601,172.9028
317.1422,172.363
317.6243,172.1734
318.1064,172.6634
318.5885,172.9419
319.0706,172.5809
319.5528,171.8098
320.0349,171.0738
320.517,170.0946
320.9991,169.5087
321.4812,169.7423
321.9633,171.1179
322.4455,172.2387
322.9276,172.8764
323.4097,173.1052
323.8918,173.0167
324.3739,172.0761
324.856,171.3609
325.3382,171.303
325.8203,172.0194
326.3024,172.3662
326.7845,171.9239
327.2666,171.2718
327.7487,170.8661
328.2309,170.6767
328.713,170.7906
329.1951,171.4733
329.6772,172.6227
330.1593,173.1921
330.6414,172.7367
331.1236,172.1171
331.6057,171.7891
332.0878,171.8685
332.5699,172.0448
333.052,172.4303
333.5341,172.8808
334.0163,172.9466
334.4984,172.3563
334.9805,171.8313
335.4626,171.6689
335.9447,171.9344
336.4268,172.3604
336.909,173.0964
337.3911,173.8483
337.8732,174.1088
338.3553,173.7742
338.8374,173.3068
339.3195,172.7534
339.8017,172.1338
340.2838,171.952
340.7659,172.3452
341.248,172.8315
341.7301,172.8312
342.2122,172.3003
342.6944,171.9547
343.1765,172.004
343.6586,172.327
344.1407,172.5777
344.6228,172.7651
345.1049,172.7697
345.5871,172.3417
346.0692,171.5677
346.5513,171.1165
347.0334,171.1388
347.5155,171.3781
347.9977,171.3779
348.4798,171.1735
348.9619,171.0588
349.444,171.2325
349.9261,171.615
350.4082,172.0974
350.8904,172.7073
351.3725,173.1884
351.8546,173.1626
352.3367,172.7852
352.8188,172.466
353.3009,172.4836
353.7831,172.6006
354.2652,172.5235
354.7473,172.2585
355.2294,171.9593
355.7115,171.8275
356.1936,171.7017
356.6758,171.3337
357.1579,170.3247
357.64,169.4645
358.1221,169.5368
358.6042,170.2954
359.0863,170.8516
359.5685,170.5371
360.0506,169.991
360.5327,169.721
361.0148,169.9502
361.4969,170.091
361.979,169.7661
362.4612,169.2129
362.9433,168.8266
363.4254,168.9711
363.9075,169.0898
364.3896,168.8669
364.8717,168.2057
365.3539,167.8004
365.836,167.9487
366.3181,168.3362
366.8002,168.6761
367.2823,169.4473
367.7644,169.6062
368.2466,168.4642
368.7287,166.2087
369.2108,165.0727
369.6929,166.1343
370.175,167.3643
370.6571,167.6956
371.1393,166.3273
371.6214,165.4831
372.1035,165.4136
372.5856,165.7971
373.0677,165.8912
373.5498,165.5495
374.032,165.1987
374.5141,164.9652
374.9962,164.8407
375.4783,164.9451
375.9604,165.3775
376.4425,165.875
376.9247,166.1334
377.4068,166.1355
377.8889,165.9794
378.371,165.6406
378.8531,165.1724
379.3352,164.7803
379.8174,164.4678
380.2995,164.2269
380.7816,164.0128
381.2637,163.8436
381.7458,163.9336
382.2279,164.3979
382.7101,164.957
383.1922,165.1298
383.6743,164.964
384.1564,164.7758
384.6385,164.718
385.1206,164.7606
385.6028,164.9021
386.0849,165.1603
386.567,165.3089
387.0491,164.8608
387.5312,164.1683
388.0133,163.9394
388.4955,164.7949
388.9776,165.9188
389.4597,166.6108
389.9418,166.9046
390.4239,167.006
390.906,166.8513
391.3882,166.6564
391.8703,166.6545
392.3524,167.0344
392.8345,167.3096
393.3166,167.0273
393.7987,166.4837
394.2809,166.2762
394.763,166.9698
395.2451,167.719
395.7272,168.2203
396.2093,168.4514
396.6914,168.3671
397.1736,167.4089
397.6557,166.3891
398.1378,166.0534
398.6199,167.4313
399.102,168.419
399.5841,168.6409
400.0663,168.1999
400.5484,167.7764
401.0305,167.3293
401.5126,166.9449
401.9947,166.6681
402.4768,166.5318
402.959,166.4441
403.4411,166.4389
403.9232,166.462
404.4053,166.4283
404.8874,166.353
405.3695,166.1797
405.8517,165.8592
406.3338,165.4082
406.8159,165.0532
407.298,164.8389
407.7801,164.5669
408.2622,164.0055
408.7444,163.1659
409.2265,162.3135
409.7086,161.381
410.1907,160.61
410.6728,160.6865
411.1549,161.5317
411.6371,162.2838
412.1192,162.4497
412.6013,162.1335
413.0834,161.4539
413.5655,160.377
414.0476,159.2745
414.5298,158.3715
415.0119,157.7105
415.494,157.3611
415.9761,157.6702
416.4582,158.0679
416.9403,158.0623
417.4225,157.696
417.9046,157.213
418.3867,156.6364
418.8688,156.0781
419.3509,155.6582
419.833,155.4693
420.3152,155.2639
420.7973,154.8898
421.2794,154.4423
421.7615,154.091
422.2436,154.106
422.7257,154.016
423.2079,153.5264
423.69,152.5305
424.1721,151.9588
424.6542,152.4636
425.1363,153.0574
425.6184,153.0032
426.1006,151.7686
426.5827,150.6959
427.0648,149.8706
427.5469,149.2729
428.029,148.9037
428.5111,148.9032
428.9933,148.8509
429.4754,148.5208
429.9575,147.8511
430.4396,147.356
430.9217,147.088
431.4038,146.874
431.886,146.4997
432.3681,145.9612
432.8502,145.3638
433.3323,144.6675
433.8144,143.9801
434.2965,143.6936
434.7787,143.8025
435.2608,143.8463
435.7429,143.388
436.225,142.6254
436.7071,142.0686
437.1892,141.8113
437.6714,141.6258
438.1535,141.2043
438.6356,140.6707
439.1177,140.3017
439.5998,140.4561
440.0819,140.6598
440.5641,140.4592
441.0462,139.8852
441.5283,139.3171
442.0104,138.9227
442.4925,138.6462
442.9746,138.4508
443.4568,138.34
443.9389,138.2793
444.421,138.3007
444.9031,138.36
445.3852,138.373
445.8673,138.3713
446.3495,138.2759
446.8316,138.0311
447.3137,137.6082
447.7958,137.2339
448.2779,136.762
448.76,136.4672
449.2422,136.6096
449.7243,137.562
450.2064,138.1454
450.6885,138.1082
451.1706,137.7269
451.6527,137.8419
452.1349,138.6382
452.617,139.2688
453.0991,139.2579
453.5812,138.6355
454.0633,138.2942
454.5454,138.2647
455.0276,138.3358
455.5097,138.283
455.9918,138.1273
456.4739,137.9995
456.956,137.9327
457.4381,137.9012
457.9203,137.8221
458.4024,137.7242
458.8845,137.7416
459.3666,137.9947
459.8488,138.3919
460.3309,138.8945
460.813,139.5185
461.2951,139.9766
461.7772,139.8933
462.2593,139.5841
462.7415,139.4201
463.2236,139.5055
463.7057,139.7764
464.1878,140.3649
464.6699,141.1533
465.152,141.7388
465.6342,141.7403
466.1163,141.7337
466.5984,142.0039
467.0805,142.7254
467.5626,143.2706
468.0447,143.4934
468.5269,143.6161
469.009,143.9008
469.4911,144.6228
469.9732,144.945
470.4553,144.534
470.9374,143.6436
471.4196,143.3996
471.9017,143.9209
472.3838,144.7265
472.8659,145.6653
473.348,146.7394
473.8301,147.5652
474.3123,148.1341
474.7944,148.4799
475.2765,148.5172
475.7586,148.3181
476.2407,148.276
476.7228,148.5829
477.205,149.0269
477.6871,149.2211
478.1692,149.23
478.6513,149.3599
479.1334,149.8712
479.6155,150.5706
480.0977,151.3053
480.5798,152.0826
481.0619,152.7215
481.544,153.0297
482.0261,153.1646
482.5082,153.311
482.9904,153.3999
483.4725,153.6379
483.9546,154.163
484.4367,154.9151
484.9188,155.6162
485.4009,156.2245
485.8831,156.7765
486.3652,157.3381
486.8473,158.0042
487.3294,158.2575
487.8115,157.7023
488.2936,157.0978
488.7758,157.315
489.2579,158.6751
489.74,159.835
490.2221,160.575
490.7042,160.9756
491.1863,161.1951
491.6685,161.2147
492.1506,161.2635
492.6327,161.5241
493.1148,161.9381
493.5969,162.1705
494.079,162.2038
494.5612,162.2502
495.0433,162.656
495.5254,163.2265
496.0075,163.5071
496.4896,163.1957
496.9717,162.8295
497.4539,162.8874
497.936,163.2928
498.4181,163.8475
498.9002,164.7038
499.3823,165.4918
499.8644,165.928
500.3466,165.9698
500.8287,166.035
501.3108,166.2014
501.7929,166.4645
502.275,166.8193
502.7571,167.55
503.2393,168.0013
503.7214,167.9164
504.2035,167.5869
504.6856,167.6863
505.1677,168.6152
505.6498,169.2081
506.132,168.9038
506.6141,167.7652
507.0962,167.64
507.5783,168.7657
508.0604,170.1219
508.5425,170.8899
509.0247,171.1107
509.5068,171.2828
509.9889,171.4777
510.471,171.6026
510.9531,171.4194
511.4352,171.0272
511.9174,170.7878
512.3995,170.8919
512.8816,171.2047
513.3637,171.6729
513.8458,172.2558
514.3279,172.7157
514.8101,172.7399
515.2922,172.6852
515.7743,172.8684
516.2564,173.4169
516.7385,173.9133
517.2206,174.1528
517.7028,174.282
518.1849,174.4665
518.667,174.8442
519.1491,175.1481
519.6312,175.3121
520.1133,175.3694
520.5955,175.4439
521.0776,175.4516
521.5597,175.6276
522.0418,176.1453
522.5239,177.0645
523.006,177.7002
523.4882,177.9873
523.9703,178.1945
524.4524,178.6202
524.9345,179.247
525.4166,179.8419
525.8987,180.3692
526.3809,180.8378
526.863,181.1728
527.3451,181.4378
527.8272,181.888
528.3093,182.9307
528.7914,184.062
529.2736,184.6334
529.7557,184.678
530.2378,184.7836
530.7199,185.2351
531.202,185.9217
531.6841,186.8132
532.1663,188.1651
532.6484,189.1494
533.1305,189.2605
533.6126,188.9825
534.0947,189.0196
534.5768,190.0311
535.059,190.6197
535.5411,190.4738
536.0232,189.7017
536.5053,188.9084
536.9874,188.038
537.4695,187.2995
537.9517,186.8169
538.4338,186.5941
538.9159,186.5506
539.398,186.7419
539.8801,186.894
540.3622,186.6563
540.8444,186.0964
541.3265,185.5165
541.8086,184.961
542.2907,184.4417
542.7728,184.0599
543.2549,183.7337
543.7371,183.2416
544.2192,182.2728
544.7013,181.2418
545.1834,180.4996
545.6655,180.0289
546.1476,179.5015
546.6298,178.6778
547.1119,177.8226
547.594,177.1579
548.0761,177.0209
548.5582,176.4317
549.0403,174.8163
549.5225,172.9548
550.0046,171.8398
550.4867,171.9167
550.9688,171.8496
551.4509,171.4565
551.933,170.7413
552.4152,169.6717
552.8973,168.1889
553.3794,166.6652
553.8615,165.2211
554.3436,163.8786
554.8257,162.8148
555.3079,162.0507
555.79,161.336
556.2721,160.4341
556.7542,159.4352
557.2363,158.5412
557.7184,157.8572
558.2006,157.1048
558.6827,156.0386
559.1648,154.7648
559.6469,153.4384
560.129,151.8103
560.6111,150.4599
561.0933,149.8858
561.5754,149.9278
562.0575,149.5342
562.5396,148.191
563.0217,146.7222
563.5038,145.3904
563.986,144.1704
564.4681,143.2003
564.9502,142.5496
565.4323,142.0408
565.9144,141.5704
566.3965,141.1561
566.8787,140.522
567.3608,139.5854
567.8429,138.5102
568.325,137.532
568.8071,136.6629
569.2892,136.0265
569.7714,135.8475
570.2535,135.826
570.7356,135.5756
571.2177,135.1141
571.6998,134.5737
572.1819,133.9769
572.6641,133.3559
573.1462,132.7196
573.6283,132.0484
574.1104,131.4405
574.5925,130.9535
575.0746,130.5219
575.5568,130.0755
576.0389,129.5074
576.521,129.0885
577.0031,128.9425
577.4852,128.9016
577.9673,128.586
578.4495,127.8861
578.9316,127.2583
579.4137,126.8629
579.8958,126.6494
580.3779,126.3546
580.86,125.9754
581.3422,125.6518
581.8243,125.5353
582.3064,125.5361
582.7885,125.4574
583.2706,125.2831
583.7527,125.0474
584.2349,124.7356
584.717,124.3917
585.1991,124.0481
585.6812,123.5697
586.1633,123.3314
586.6454,123.8129
587.1276,124.5918
587.6097,124.8969
588.0918,124.007
588.5739,123.2815
589.056,123.1112
589.5381,123.3953
590.0203,123.3838
590.5024,122.9625
590.9845,122.4722
591.4666,122.0325
591.9487,121.6401
592.4308,121.4857
592.913,121.5868
593.3951,121.8448
593.8772,122.3548
594.3593,122.9625
594.8414,123.0707
595.3235,122.4572
595.8057,121.7233
596.2878,121.4813
596.7699,121.5559
597.252,121.6209
597.7341,121.4674
598.2162,121.3459
598.6984,121.434
599.1805,121.6668
599.6626,121.8086
600.1447,121.7037
600.6268,121.5953
601.1089,121.6224
601.5911,121.8161
602.0732,121.7158
602.5553,121.0982
603.0374,120.5444
603.5195,120.5
604.0016,120.9991
604.4838,121.6133
604.9659,122.3752
605.448,123.052
605.9301,123.3543
606.4122,123.312
606.8943,123.0044
607.3765,122.2846
607.8586,121.6062
608.3407,121.6097
608.8228,122.062
609.3049,122.3911
609.787,122.2254
610.2692,121.965
610.7513,121.757
611.2334,121.6197
611.7155,121.6601
612.1976,122.1455
612.6797,122.596
613.1619,122.7738
613.644,122.6011
614.1261,122.5136
614.6082,122.4903
615.0903,122.5867
615.5724,122.946
616.0546,123.5866
616.5367,123.9195
617.0188,123.806
617.5009,123.5447
617.983,123.5616
618.4651,123.7983
618.9473,124.067
619.4294,124.4073
619.9115,124.6245
620.3936,124.3255
620.8757,123.7193
621.3578,123.4262
621.84,124.1534
622.3221,124.8833
622.8042,125.0092
623.2863,124.4974
623.7684,124.191
624.2505,124.1936
624.7327,124.4021
625.2148,124.8522
625.6969,125.7191
626.179,126.0769
626.6611,125.8043
627.1432,125.2736
627.6254,124.7178
628.1075,124.1657
628.5896,124.1601
629.0717,124.9099
629.5538,125.8876
630.0359,126.4682
630.5181,126.7108
631.0002,126.7729
631.4823,126.5077
631.9644,126.2901
632.4465,126.4563
632.9286,126.8989
633.4108,127.2785
633.8929,127.4193
634.375,127.5353
634.8571,127.7213
635.3392,127.986
635.8214,128.2128
636.3035,128.4156
636.7856,128.5665
637.2677,128.607
637.7498,128.4977
638.2319,128.6253
638.7141,129.0355
639.1962,129.5174
639.6783,129.8034
640.1604,129.9705
640.6425,130.3425
641.1246,131.042
641.6068,131.7614
642.0889,132.0753
642.571,132.2116
643.0531,132.5555
643.5352,133.5625
644.0173,134.4859
644.4995,134.9102
644.9816,135.0048
645.4637,135.2787
645.9458,135.8828
646.4279,136.5953
646.91,137.4288
647.3922,138.3644
647.8743,139.0319
648.3564,139.3535
648.8385,139.6545
649.3206,139.9978
649.8027,140.4359
650.2849,141.5655
650.767,143.4316
651.2491,145.1982
651.7312,145.8456
652.2133,145.9514
652.6954,146.4962
653.1776,147.7459
653.6597,149.047
654.1418,150.0442
654.6239,150.8743
655.106,151.7023
655.5881,152.4803
656.0703,153.3645
656.5524,154.3493
657.0345,155.4627
657.5166,156.7737
657.9987,158.397
658.4808,159.9261
658.963,161.2154
659.4451,162.3805
659.9272,163.9178
660.4093,165.8288
660.8914,167.6396
661.3735,168.9996
661.8557,170.1222
662.3378,171.4087
662.8199,172.852
663.302,174.3616
663.7841,176.0387
664.2662,177.6528
664.7484,178.9511
665.2305,179.8229
665.7126,180.8708
666.1947,182.5737
666.6768,184.2715
667.1589,185.4941
667.6411,186.0283
668.1232,186.5375
668.6053,187.0324
669.0874,187.4857
669.5695,187.8222
670.0516,188.0435
670.5338,188.435
671.0159,189.1654
671.498,189.822
671.9801,189.6513
672.4622,188.889
672.9443,188.1917
673.4265,188.1781
673.9086,187.991
674.3907,186.7869
674.8728,184.897
675.3549,183.3572
675.837,183.006
676.3192,182.4998
676.8013,181.1631
677.2834,179.0974
677.7655,177.7744
678.2476,177.5939
678.7297,177.3488
679.2119,176.2789
679.694,174.4483
680.1761,173.3293
680.6582,172.9818
681.1403,172.7583
681.6224,172.06
682.1046,171.1091
682.5867,170.3588
683.0688,169.8777
683.5509,169.4244
684.033,168.6746
684.5151,167.9406
684.9973,167.5495
685.4794,167.8364
685.9615,168.0144
686.4436,167.8422
686.9257,167.5561
687.4078,167.4548
687.89,167.6766
688.3721,167.6732
688.8542,167.2465
689.3363,166.7056
689.8184,166.7663
690.3005,167.3819
690.7827,167.9819
691.2648,168.3169
691.7469,168.5486
692.229,168.8446
692.7111,169.2216
693.1932,169.7242
693.6754,170.5607
694.1575,171.3622
694.6396,171.8098
695.1217,171.9409
695.6038,172.35
696.0859,173.3779
696.5681,174.4226
697.0502,175.2254
697.5323,175.7683
698.0144,176.558
698.4965,177.6551
698.9786,178.7856
699.4608,179.6963
699.9429,180.4617
700.425,181.3628
700.9071,182.4168
701.3892,183.6697
701.8713,185.5096
702.3535,187.4217
702.8356,188.6446
703.3177,188.7336
703.7998,189.0922
704.2819,190.469
704.764,192.2935
705.2462,193.977
705.7283,195.593
706.2104,196.8138
706.6925,197.4119
707.1746,197.809
707.6567,198.7399
708.1389,200.2401
708.621,201.6259
709.1031,202.7428
709.5852,203.6808
710.0673,204.5989
710.5494,205.461
711.0316,206.1855
711.5137,206.5642
711.9958,206.9367
712.4779,207.6249
712.96,208.5067
713.4421,209.1959
713.9243,209.4014
714.4064,209.6113
714.8885,210.0403
715.3706,210.6338
715.8527,210.8747
716.3348,210.6137
716.817,210.4533
717.2991,210.8073
717.7812,211.519
718.2633,211.797
718.7454,211.6443
719.2275,211.1612
719.7097,210.1577
720.1918,209.0037
720.6739,208.1501
721.156,207.6423
721.6381,207.1733
722.1202,206.7432
722.6024,206.2058
723.0845,205.4271
723.5666,204.279
724.0487,203.2781
724.5308,202.5034
725.0129,201.7588
725.4951,200.8746
725.9772,199.8354
726.4593,198.8335
726.9414,197.9129
727.4235,196.8865
727.9056,195.3407
728.3878,193.5519
728.8699,192.1838
729.352,191.5244
729.8341,190.8587
730.3162,189.5806
730.7983,188.0581
731.2805,186.7373
731.7626,185.9326
732.2447,185.0624
732.7268,184.024
733.2089,182.9241
733.691,181.9341
734.1732,181.068
734.6553,180.2535
735.1374,179.4853
735.6195,178.7629
736.1016,178.0955
736.5837,177.4791
737.0659,176.8892
737.548,176.1887
738.0301,175.6401
738.5122,175.7229
738.9943,176.1562
739.4764,176.2194
739.9586,175.1624
740.4407,174.2243
740.9228,173.9167
741.4049,174.0912
741.887,174.1057
742.3691,173.9044
742.8513,173.6905
743.3334,173.5237
743.8155,173.4098
744.2976,173.3342
744.7797,173.3057
745.2618,173.4463
745.744,174.0649
746.2261,174.7536
746.7082,174.9328
747.1903,174.6529
747.6724,174.5268
748.1545,174.735
748.6367,175.2469
749.1188,176.2207
749.6009,177.7548
750.083,178.6884
750.5651,178.7906
751.0472,178.7376
751.5294,178.8876
752.0115,179.2383
752.4936,179.7255
752.9757,180.3583
753.4578,181.0103
753.9399,181.6104
754.4221,182.1367
754.9042,182.4909
755.3863,182.6507
755.8684,182.8897
756.3505,183.3941
756.8326,184.0106
757.3148,184.6333
757.7969,185.2781
758.279,185.8516
758.7611,186.3142
759.2432,186.7676
759.7253,187.3276
760.2075,188.0027
760.6896,188.5388
761.1717,188.901
761.6538,189.2309
762.1359,189.8151
762.618,190.4501
763.1002,190.6659
763.5823,190.1817
764.0644,189.9207
764.5465,190.7483
765.0286,191.8888
765.5107,192.4996
765.9929,191.9678
766.475,191.6772
766.9571,191.7813
767.4392,191.9792
767.9213,191.7873
768.4034,191.1778
768.8856,191.0288
769.3677,191.6181
769.8498,192.2566
770.3319,191.9417
770.814,191.0212
771.2961,190.2433
771.7783,189.9756
772.2604,189.6333
772.7425,188.7419
773.2246,187.632
773.7067,186.7975
774.1888,186.4242
774.671,186.1621
775.1531,186.0959
775.6352,186.0331
776.1173,185.6066
776.5994,184.8119
777.0815,183.9043
777.5637,182.9437
778.0458,181.8924
778.5279,180.5474
779.01,179.0764
779.4921,177.8615
779.9742,177.4389
780.4564,176.8772
780.9385,175.5843
781.4206,173.8764
781.9027,172.4341
782.3848,171.4282
782.8669,170.5002
783.3491,169.6451
783.8312,168.7958
784.3133,167.8804
784.7954,166.8991
785.2775,165.5053
785.7596,163.4013
786.2418,161.1225
786.7239,159.4361
787.206,158.1818
787.6881,156.9153
788.1702,155.3323
788.6523,153.8604
789.1345,152.8728
789.6166,152.1367
790.0987,150.9062
790.5808,148.8904
791.0629,146.9571
791.545,145.3001
792.0272,143.8642
792.5093,142.643
792.9914,141.6005
793.4735,140.4975
793.9556,139.1482
794.4377,137.7612
794.9199,136.6363
795.402,135.6644
795.8841,134.6058
796.3662,133.1788
796.8483,131.8373
797.3304,130.8465
797.8126,130.0692
798.2947,129.0536
798.7768,127.5843
799.2589,126.543
799.741,126.4181
800.2231,126.675
800.7053,125.8274
801.1874,124.0384
801.6695,122.1817
802.1516,120.5059
802.6337,119.1235
803.1158,118.2176
803.598,117.6972
804.0801,117.2729
804.5622,116.9449
805.0443,116.6167
805.5264,116.3336
806.0085,116.0229
806.4907,115.3675
806.9728,114.2557
807.4549,113.3853
807.937,113.0758
808.4191,113.039
808.9012,112.7435
809.3834,112.2124
809.8655,111.5282
810.3476,110.472
810.8297,109.5201
811.3118,109.0422
811.7939,108.9118
812.2761,108.7648
812.7582,108.731
813.2403,108.399
813.7224,107.5544
814.2045,106.4187
814.6866,105.5853
815.1688,105.0666
815.6509,104.8913
816.133,105.2052
816.6151,105.7024
817.0972,106.0427
817.5793,106.2041
818.0615,106.1392
818.5436,105.5824
819.0257,105.0551
819.5078,104.6801
819.9899,104.499
820.472,104.622
820.9542,105.2144
821.4363,105.7178
821.9184,106.041
822.4005,106.1731
822.8826,105.9269
823.3647,105.4032
823.8469,105.2332
824.329,105.9534
824.8111,106.6814
825.2932,106.4869
825.7753,105.7311
826.2574,105.1381
826.7396,104.9338
827.2217,104.8883
827.7038,105.0291
828.1859,105.2579
828.6681,105.425
829.1502,105.5469
829.6323,105.4502
830.1144,105.0233
830.5966,104.5145
831.0787,104.2414
831.5608,104.1826
832.0429,104.3015
832.525,104.7414
833.0071,105.1011
833.4893,105.1095
833.9714,104.9319
834.4535,104.8339
834.9356,104.9039
835.4177,104.9056
835.8998,104.7863
836.382,104.6385
836.8641,104.653
837.3462,104.7959
837.8283,104.718
838.3104,104.2605
838.7925,103.8846
839.2747,104.1861
839.7568,104.7997
840.2389,105.2261
840.721,105.2876
841.2031,105.2439
841.6852,105.1005
842.1674,104.9078
842.6495,104.6887
843.1316,104.4184
843.6137,104.2627
844.0958,104.2249
844.5779,104.3355
845.0601,104.8059
845.5422,105.4138
846.0243,105.6647
846.5064,105.4255
846.9885,105.1089
847.4706,104.8673
847.9528,104.6976
848.4349,104.6084
848.917,104.6295
849.3991,104.625
849.8812,104.571
850.3633,104.5338
850.8455,104.563
851.3276,104.6567
851.8097,104.8545
852.2918,105.1644
852.7739,105.3604
853.256,105.1082
853.7382,104.7614
854.2203,104.6899
854.7024,104.9634
855.1845,105.1603
855.6666,105.1962
856.1487,105.132
856.6309,104.9218
857.113,104.5744
857.5951,104.5912
858.0772,104.9988
858.5593,105.4537
859.0414,105.7752
859.5236,105.976
860.0057,106.0027
860.4878,105.8905
860.9699,105.8702
861.452,106.0657
861.9341,106.3579
862.4163,106.7661
862.8984,107.2538
863.3805,107.553
863.8626,107.6315
864.3447,107.6333
864.8268,107.582
865.309,107.5185
865.7911,107.4683
866.2732,107.4766
866.7553,107.7326
867.2374,108.5394
867.7195,109.4262
868.2017,110.2481
868.6838,110.93
869.1659,111.1914
869.648,110.7229
870.1301,110.3907
870.6122,110.3435
871.0944,110.5276
871.5765,110.9584
872.0586,111.5782
872.5407,111.9078
873.0228,111.7005
873.5049,111.3929
873.9871,111.3424
874.4692,111.487
874.9513,111.7308
875.4334,112.3198
875.9155,112.6073
876.3976,112.2719
876.8798,111.8808
877.3619,112.248
877.844,113.4418
878.3261,114.0447
878.8082,113.8276
879.2903,113.3669
879.7725,113.1581
880.2546,113.1527
880.7367,113.3077
881.2188,113.6429
881.7009,113.991
882.183,114.4623
882.6652,114.7802
883.1473,114.7157
883.6294,114.1819
884.1115,113.8196
884.5936,113.6323
885.0757,113.6038
885.5579,113.7708
886.04,114.0712
886.5221,114.4021
887.0042,114.7534
887.4863,115.0921
887.9684,115.4698
888.4506,115.7694
888.9327,115.97
889.4148,116.0602
889.8969,115.8012
890.379,115.0123
890.8611,114.4147
891.3433,114.2699
891.8254,114.5418
892.3075,115.4159
892.7896,116.7043
893.2717,117.5778
893.7538,117.3249
894.236,116.8297
894.7181,116.4346
895.2002,116.1995
895.6823,116.3171
896.1644,117.0504
896.6465,117.5775
897.1287,117.7405
897.6108,117.6692
898.0929,117.4947
898.575,117.2685
899.0571,117.28
899.5392,117.7198
900.0214,118.0742
900.5035,117.6154
900.9856,116.9912
901.4677,116.9867
901.9498,118.4753
902.4319,119.2555
902.9141,119.013
903.3962,118.5078
903.8783,118.4741
904.3604,118.8515
904.8425,119.0012
905.3246,118.8756
905.8068,118.7037
906.2889,118.5085
906.771,118.4675
907.2531,118.8839
907.7352,119.8294
908.2173,120.3835
908.6995,120.1942
909.1816,119.9099
909.6637,119.7536
910.1458,119.7341
910.6279,120.0428
911.11,120.6549
911.5922,121.0527
912.0743,120.6249
912.5564,120.094
913.0385,120.317
913.5206,121.0625
914.0027,121.6179
914.4849,121.5994
914.967,121.61
915.4491,121.8004
915.9312,122.0551
916.4133,122.1253
916.8954,122.0132
917.3776,121.8367
917.8597,121.5838
918.3418,121.3944
918.8239,121.4759
919.306,121.699
919.7881,121.8901
920.2703,122.04
920.7524,122.0748
921.2345,121.8669
921.7166,121.6678
922.1987,121.7089
922.6808,122.0007
923.163,122.3033
923.6451,122.6274
924.1272,122.7154
924.6093,121.9826
925.0914,121.1183
925.5735,121.0361
926.0557,121.7856
926.5378,122.3542
927.0199,122.3545
927.502,122.2277
927.9841,122.076
928.4662,121.9224
928.9484,121.8928
929.4305,121.9865
929.9126,122.2121
930.3947,122.691
930.8768,123.1781
931.3589,123.431
931.8411,123.4639
932.3232,123.3005
932.8053,122.5677
933.2874,122.1651
933.7695,122.3859
934.2516,122.8531
934.7338,122.9949
935.2159,122.8136
935.698,122.5794
936.1801,122.2994
936.6622,122.1623
937.1443,122.5828
937.6265,123.1445
938.1086,123.2769
938.5907,122.7301
939.0728,122.4099
939.5549,122.7007
940.037,122.9553
940.5192,122.7302
941.0013,122.0622
941.4834,121.7001
941.9655,121.6381
942.4476,121.7412
942.9297,122.0911
943.4119,122.4298
943.894,122.5451
944.3761,122.4341
944.8582,122.1148
945.3403,121.3256
945.8224,120.6911
946.3046,120.3623
946.7867,120.2464
947.2688,120.1492
947.7509,120.0716
948.233,120.0579
948.7151,120.2081
949.1973,120.1884
949.6794,119.3942
950.1615,118.3941
950.6436,117.8998
951.1257,118.4242
951.6078,118.7523
952.09,118.8799
952.5721,118.7887
953.0542,118.3859
953.5363,117.727
954.0184,117.112
954.5005,116.5605
954.9827,116.1379
955.4648,115.9351
955.9469,115.8412
956.429,115.8622
956.9111,115.9634
957.3932,115.7838
957.8754,115.1411
958.3575,114.617
958.8396,114.4478
959.3217,114.4514
959.8038,114.1647
960.2859,113.6719
960.7681,113.2739
961.2502,113.1
961.7323,113.0197
962.2144,113.1847
962.6965,113.293
963.1786,112.9132
963.6608,111.7935
964.1429,110.8701
964.625,110.1503
965.1071,109.7344
965.5892,109.9787
966.0714,110.5397
966.5535,110.6136
967.0356,110.1485
967.5177,109.7085
967.9998,109.7138
968.4819,109.694
968.9641,109.3334
969.4462,108.6975
969.9283,108.2255
970.4104,107.9087
970.8925,107.8309
971.3746,108.1029
971.8568,108.5208
972.3389,108.9901
972.821,109.3394
973.3031,109.2068
973.7852,107.4026
974.2673,106.5805
974.7495,108.1314
975.2316,110.1106
975.7137,110.277
976.1958,108.5388
976.6779,107.5564
977.16,107.5716
977.6422,107.8134
978.1243,107.6575
978.6064,107.3338
979.0885,107.0514
979.5706,106.8329
980.0527,106.7203
980.5349,106.8678
981.017,106.8831
981.4991,106.5329
981.9812,105.9948
982.4633,105.9722
982.9454,106.3766
983.4276,106.6704
983.9097,106.5946
984.3918,106.3867
984.8739,106.124
985.356,105.8715
985.8381,105.7342
986.3203,105.7196
986.8024,105.8462
987.2845,106.1989
987.7666,106.483
988.2487,106.2667
988.7308,105.7649
989.213,105.5853
989.6951,105.7673
990.1772,105.8691
990.6593,105.5869
991.1414,105.2188
991.6235,104.8899
992.1057,104.61
992.5878,104.3954
993.0699,104.2328
993.552,104.2577
994.0341,104.6369
994.5162,105.0272
994.9984,104.8148
995.4805,104.2738
995.9626,103.9254
996.4447,104.0329
996.9268,104.174
997.4089,104.3368
997.8911,104.4528
998.3732,104.4077
998.8553,104.2138
999.3374,104.2588
999.8195,104.5614
1000.302,104.8224
1000.784,104.6939
1001.266,104.5266
1001.748,104.6719
1002.23,105.0998
1002.712,105.3398
1003.194,105.2603
1003.676,105.2206
1004.159,105.3316
1004.641,105.5084
1005.123,105.5961
1005.605,105.6058
1006.087,105.5386
1006.569,105.2837
1007.051,105.2511
1007.533,105.915
1008.016,106.7032
1008.498,107.1101
1008.98,107.0768
1009.462,106.9073
1009.944,106.56
1010.426,106.3789
1010.908,106.7703
1011.39,107.3813
1011.872,107.7185
1012.355,107.8383
1012.837,108.0511
1013.319,108.5423
1013.801,109.0391
1014.283,109.5493
1014.765,109.9719
1015.247,110.0849
1015.729,109.9235
1016.211,109.7355
1016.694,109.5556
1017.176,109.4373
1017.658,109.2815
1018.14,109.3062
1018.622,109.8636
1019.104,111.1489
1019.586,111.669
1020.068,111.2106
1020.551,110.7012
1021.033,110.7313
1021.515,110.9914
1021.997,110.6571
1022.479,109.957
1022.961,109.5708
1023.443,110.1569
1023.925,110.6399
1024.407,110.7038
1024.89,110.5148
1025.372,110.1627
1025.854,109.6344
1026.336,109.5567
1026.818,110.03
1027.3,110.4923
1027.782,110.4611
1028.264,110.1703
1028.746,109.772
1029.229,109.2876
1029.711,108.9461
1030.193,108.8014
1030.675,108.7005
1031.157,108.6053
1031.639,108.5093
1032.121,108.3912
1032.603,108.2574
1033.086,108.1394
1033.568,108.0865
1034.05,107.9635
1034.532,107.688
1035.014,107.3313
1035.496,106.9252
1035.978,106.4363
1036.46,106.1719
1036.943,106.1425
1037.425,106.2417
1037.907,106.6084
1038.389,106.9048
1038.871,106.6312
1039.353,105.9326
1039.835,105.4319
1040.317,105.337
1040.799,105.313
1041.281,105.352
1041.764,105.3726
1042.246,105.1801
1042.728,104.8599
1043.21,104.7367
1043.692,104.8965
1044.174,104.9817
1044.656,104.6203
1045.138,104.2705
1045.621,104.2543
1046.103,104.5454
1046.585,104.8068
1047.067,105.0436
1047.549,105.1537
1048.031,105.0491
1048.513,104.8525
1048.995,104.6674
1049.478,104.5045
1049.96,104.3823
1050.442,104.3532
1050.924,104.2799
1051.406,104.1021
1051.888,103.9875
1052.37,104.1476
1052.852,104.4935
1053.334,104.6777
1053.817,104.7133
1054.299,104.8591
1054.781,105.5091
1055.263,106.035
1055.745,106.1501
1056.227,105.938
1056.709,105.4769
1057.191,104.742
1057.673,104.2545
1058.156,104.1562
1058.638,104.1789
1059.12,104.0239
1059.602,103.8479
1060.084,103.8541
1060.566,104.1206
1061.048,104.2251
1061.53,104.0317
1062.013,103.9857
1062.495,104.4515
1062.977,105.0915
1063.459,104.9873
1063.941,104.3525
1064.423,103.7936
1064.905,103.4595
1065.387,103.3688
1065.87,103.8476
1066.352,104.3251
1066.834,104.1957
1067.316,103.4541
1067.798,103.0943
1068.28,103.1489
1068.762,103.1352
1069.244,102.439
1069.726,101.7544
1070.208,101.7263
1070.691,102.2246
1071.173,102.5877
1071.655,102.8164
1072.137,102.8149
1072.619,102.4983
1073.101,102.1417
1073.583,102.1875
1074.065,102.4152
1074.548,102.4738
1075.03,102.2962
1075.512,102.0239
1075.994,101.468
1076.476,101.1401
1076.958,101.3945
1077.44,101.9795
1077.922,101.8993
1078.405,101.2684
1078.887,100.6374
1079.369,100.1914
1079.851,99.84028
1080.333,99.41286
1080.815,99.14249
1081.297,99.34333
1081.779,100.1824
1082.261,100.5058
1082.744,100.2918
1083.226,99.86768
1083.708,99.31707
1084.19,98.79834
1084.672,98.44212
1085.154,98.25725
1085.636,98.28815
1086.118,98.75172
1086.601,98.97652
1087.083,98.86926
1087.565,98.53722
1088.047,98.05775
1088.529,97.47306
1089.011,96.77988
1089.493,95.98402
1089.975,95.44987
1090.458,95.45786
1090.94,95.65796
1091.422,96.09962
1091.904,96.5359
1092.386,96.00455
1092.868,94.67509
1093.35,93.63255
1093.832,93.22683
1094.314,93.05479
1094.797,93.06162
1095.279,93.01496
1095.761,92.62156
1096.243,91.84749
1096.725,91.47084
1097.207,91.52805
1097.689,91.57396
1098.171,91.27429
1098.653,90.92611
1099.136,90.91506
1099.618,91.09739
1100.1,91.19395
1100.582,91.22585
1101.064,90.98005
1101.546,90.33876
1102.028,89.70145
1102.51,89.45486
1102.993,89.46923
1103.475,89.51197
1103.957,89.5591
1104.439,89.54379
1104.921,89.31509
1105.403,89.19341
1105.885,89.33548
1106.367,89.54264
1106.849,89.41689
1107.332,89.02847
1107.814,88.71561
1108.296,88.52016
1108.778,88.50703
1109.26,89.06928
1109.742,89.49304
1110.224,89.15239
1110.706,88.2571
1111.188,87.95104
1111.671,88.24519
1112.153,88.44468
1112.635,88.27061
1113.117,88.06906
1113.599,88.32157
1114.081,88.66431
1114.563,88.63436
1115.045,88.09995
1115.528,87.61736
1116.01,87.15564
1116.492,86.87132
1116.974,87.00937
1117.456,87.23949
1117.938,86.87866
1118.42,86.21967
1118.902,85.88774
1119.385,86.50546
1119.867,86.76808
1120.349,86.45513
1120.831,86.09523
1121.313,86.25251
1121.795,86.73071
1122.277,86.94246
1122.759,86.91122
1123.241,86.89383
1123.724,87.00598
1124.206,87.16442
1124.688,87.45052
1125.17,87.66813
1125.652,87.33772
1126.134,86.58981
1126.616,86.51006
1127.098,87.24932
1127.58,87.77433
1128.063,87.06736
1128.545,86.22839
1129.027,86.06034
1129.509,86.32295
1129.991,86.08223
1130.473,85.32099
1130.955,84.94529
1131.437,85.27969
1131.92,85.68469
1132.402,85.43201
1132.884,85.03558
1133.366,85.11808
1133.848,85.77347
1134.33,85.77084
1134.812,84.93435
1135.294,84.42068
1135.776,84.86291
1136.259,85.66592
1136.741,86.24431
1137.223,86.56377
1137.705,86.54874
1138.187,85.91405
1138.669,85.56591
1139.151,85.58638
1139.633,85.69733
1140.115,85.70596
1140.598,85.67696
1141.08,85.79082
1141.562,85.98325
1142.044,86.0775
1142.526,85.86548
1143.008,85.77711
1143.49,85.95717
1143.972,86.116
1144.455,85.93846
1144.937,85.50645
1145.419,84.97836
1145.901,84.41235
1146.383,84.10497
1146.865,84.42591
1147.347,84.76939
1147.829,84.98209
1148.312,85.08798
1148.794,85.10856
1149.276,85.05242
1149.758,84.97913
1150.24,84.89568
1150.722,84.77299
1151.204,84.51833
1151.686,84.29296
1152.168,84.14697
1152.651,84.10656
1153.133,84.37341
1153.615,84.92144
1154.097,85.0535
1154.579,84.51641
1155.061,84.03982
1155.543,84.40601
1156.025,84.9352
1156.507,84.97758
1156.99,84.59213
1157.472,84.562
1157.954,84.93066
1158.436,84.8937
1158.918,83.93588
1159.4,83.05265
1159.882,83.60595
1160.364,84.59571
1160.847,84.71387
1161.329,83.62267
1161.811,83.37383
1162.293,84.1157
1162.775,84.77612
1163.257,84.7123
1163.739,84.39177
1164.221,84.40121
1164.703,84.56931
1165.186,84.59673
1165.668,84.28004
1166.15,84.19624
1166.632,84.40681
1167.114,84.62325
1167.596,84.61086
1168.078,84.4874
1168.56,84.45798
1169.042,84.47703
1169.525,84.42081
1170.007,84.20021
1170.489,83.97499
1170.971,83.70368
1171.453,83.55373
1171.935,83.87287
1172.417,84.34395
1172.899,84.19932
1173.382,83.57091
1173.864,83.24036
1174.346,83.79643
1174.828,84.20419
1175.31,84.31822
1175.792,84.24915
1176.274,84.08261
1176.756,83.86008
1177.239,83.62408
1177.721,83.39434
1178.203,83.33923
1178.685,83.78894
1179.167,84.07227
1179.649,83.99931
1180.131,83.72111
1180.613,83.37833
1181.095,83.06808
1181.578,83.17592
1182.06,83.78472
1182.542,84.2109
1183.024,84.0547
1183.506,83.75097
1183.988,83.37003
1184.47,83.02445
1184.952,83.09989
1185.434,83.46449
1185.917,83.61885
1186.399,83.39409
1186.881,83.24028
1187.363,83.51234
1187.845,83.7485
1188.327,83.66071
1188.809,83.38989
1189.291,83.61396
1189.774,84.17783
1190.256,84.3061
1190.738,83.5575
1191.22,82.90241
1191.702,82.73987
1192.184,82.92803
1192.666,83.51521
1193.148,84.37769
1193.63,84.59258
1194.113,84.26573
1194.595,84.01956
1195.077,84.18762
1195.559,84.3494
1196.041,84.24834
1196.523,84.09879
1197.005,84.10551
1197.487,84.24751
1197.969,84.04935
1198.452,83.57756
1198.934,83.32891
1199.416,83.83491
1199.898,84.27905
1200.38,84.15701
1200.862,83.86633
1201.344,83.77415
1201.826,83.87971
1202.309,84.17239
1202.791,84.62069
1203.273,84.86205
1203.755,84.45737
1204.237,84.05462
1204.719,84.02646
1205.201,84.15715
1205.683,84.18184
1206.166,84.10325
1206.648,84.20763
1207.13,84.48595
1207.612,84.61971
1208.094,84.20035
1208.576,83.80099
1209.058,83.67835
1209.54,83.80332
1210.022,84.28325
1210.505,85.09561
1210.987,85.39098
1211.469,85.11979
1211.951,84.70873
1212.433,84.22314
1212.915,83.91228
1213.397,84.11283
1213.879,84.4794
1214.361,84.39926
1214.844,83.90555
1215.326,83.44569
1215.808,83.07012
1216.29,82.89561
1216.772,83.28489
1217.254,83.58728
1217.736,83.22065
1218.218,82.64001
1218.701,82.981
1219.183,84.1262
1219.665,84.674
1220.147,84.3893
1220.629,83.94198
1221.111,83.52142
1221.593,83.32739
1222.075,83.55396
1222.557,84.01976
1223.04,84.3223
1223.522,84.4608
1224.004,84.36359
1224.486,83.98988
1224.968,83.71316
1225.45,83.89182
1225.932,84.09719
1226.414,84.14031
1226.896,84.03078
1227.379,83.61358
1227.861,83.02238
1228.343,83.12427
1228.825,84.26949
1229.307,85.03332
1229.789,84.05258
1230.271,83.10835
1230.753,83.1422
1231.236,83.85265
1231.718,84.37708
1232.2,84.69724
1232.682,84.63276
1233.164,84.02635
1233.646,83.59134
1234.128,83.94541
1234.61,84.24348
1235.093,84.0339
1235.575,83.52038
1236.057,83.31229
1236.539,83.36741
1237.021,83.61732
1237.503,84.17081
1237.985,84.41676
1238.467,83.80354
1238.949,83.21489
1239.432,83.00817
1239.914,83.12105
1240.396,83.53835
1240.878,84.10659
1241.36,84.36226
1241.842,84.06651
1242.324,83.7937
1242.806,83.57748
1243.288,83.57942
1243.771,84.00602
1244.253,84.60229
1244.735,84.70934
1245.217,84.46792
1245.699,84.19775
1246.181,83.94283
1246.663,83.79309
1247.145,83.73103
1247.628,83.82936
1248.11,84.30856
1248.592,84.79484
1249.074,84.19961
1249.556,83.0837
1250.038,82.56367
1250.52,83.28015
1251.002,83.71353
1251.484,83.75664
1251.967,83.63859
1252.449,83.34903
1252.931,83.12955
1253.413,83.63344
1253.895,84.40011
1254.377,84.54881
1254.859,83.50419
1255.341,83.01327
1255.823,83.16731
1256.306,83.4417
1256.788,83.51713
1257.27,83.56302
1257.752,83.89101
1258.234,84.28808
1258.716,84.3615
1259.198,83.9454
1259.68,83.85233
1260.163,84.11565
1260.645,84.39458
1261.127,84.48205
1261.609,84.52283
1262.091,84.69009
1262.573,84.86739
1263.055,84.88158
1263.537,84.70181
1264.02,84.58871
1264.502,84.54025
1264.984,84.48795
1265.466,84.3231
1265.948,84.22691
1266.43,84.52975
1266.912,84.81044
1267.394,84.51746
1267.876,83.64155
1268.359,83.21673
1268.841,83.2141
1269.323,83.377
1269.805,83.73448
1270.287,84.00554
1270.769,83.98537
1271.251,83.89181
1271.733,83.9427
1272.215,84.09282
1272.698,83.80574
1273.18,83.2205
1273.662,82.99025
1274.144,83.95157
1274.626,84.50081
1275.108,84.07903
1275.59,83.52342
1276.072,83.53676
1276.555,83.93223
1277.037,84.15739
1277.519,84.21646
1278.001,84.12259
1278.483,83.69589
1278.965,83.38132
1279.447,83.142
1279.929,83.16792
1280.411,83.90575
1280.894,84.82687
1281.376,84.87112
1281.858,84.33463
1282.34,83.88926
1282.822,83.54595
1283.304,83.69024
1283.786,84.46546
1284.268,85.02248
1284.75,84.43689
1285.233,83.62727
1285.715,83.82182
1286.197,84.49397
1286.679,84.70192
1287.161,84.27021
1287.643,83.89842
1288.125,83.58327
1288.607,83.39526
1289.09,83.4012
1289.572,83.52401
1290.054,83.78732
1290.536,84.08913
1291.018,84.28242
1291.5,84.3584
1291.982,84.6414
1292.464,85.09461
1292.947,85.4041
1293.429,85.42014
1293.911,85.2408
1294.393,84.64726
1294.875,84.12012
1295.357,84.10323
1295.839,84.47646
1296.321,84.55472
1296.803,84.40953
1297.286,84.28988
1297.768,84.34787
1298.25,84.34847
1298.732,84.23912
1299.214,84.10856
1299.696,83.9255
1300.178,83.81333
1300.66,84.03297
