Wavenumber (cm⁻¹),Intensity
200.0,30243.28270348837
201.00097751710655,29957.393049256632
202.0019550342131,29622.6396170575
203.00293255131965,29273.38103559981
204.0039100684262,28989.67374514083
205.00488758553274,28554.833333431365
206.0058651026393,28233.419858740603
207.00684261974584,28005.50737968583
208.0078201368524,27182.028782763875
209.00879765395894,26683.431276992804
210.00977517106548,26235.985682040347
211.01075268817203,25652.14279569893
212.01173020527858,24835.305358571055
213.01270772238513,24238.229076224994
214.01368523949168,23721.27896276549
215.01466275659823,22972.91177179419
216.01564027370478,22435.4329340738
217.01661779081132,21915.184291855025
218.01759530791787,21358.85505000706
219.01857282502445,20669.681300965705
220.019550342131,20179.701786798745
221.02052785923755,19720.45834089787
222.0215053763441,19191.90138539732
223.02248289345064,18926.534736031223
224.0234604105572,18641.73281317747
225.02443792766374,18347.029784725528
226.0254154447703,18060.5154626404
227.02639296187684,17859.161683609345
228.02737047898339,17722.22307609611
229.02834799608993,17623.974111471147
230.02932551319648,17448.87600352248
231.03030303030303,17376.098998740137
232.03128054740958,17343.181796807537
233.03225806451613,17323.42542528411
234.03323558162268,17301.522197338672
235.03421309872923,17262.361732665115
236.03519061583577,17238.89271482382
237.03616813294232,17276.85830992925
238.03714565004887,17224.415690040805
239.03812316715542,17337.831645867667
240.03910068426197,17553.049687244435
241.04007820136852,17575.683022788056
242.04105571847506,17716.58603720273
243.0420332355816,17818.73177330457
244.0430107526882,17846.084844203753
245.04398826979474,17998.058073078326
246.0449657869013,18268.032906410415
247.04594330400784,18473.605455544377
248.04692082111438,18454.608801935057
249.04789833822093,18748.42053228627
250.04887585532748,18957.40811053375
251.04985337243403,19115.975659181415
252.05083088954058,19317.048571675427
253.05180840664713,19499.873441546195
254.05278592375367,19649.185175181356
255.05376344086022,19796.933825378866
256.05474095796677,20135.71495872706
257.0557184750733,20319.807276928885
258.05669599217987,20510.476381198783
259.0576735092864,20780.857973271664
260.05865102639297,21014.443802062437
261.0596285434995,21279.822502343683
262.06060606060606,21564.988761056065
263.0615835777126,21859.35083997108
264.06256109481916,22236.70113576475
265.0635386119257,22626.51926195311
266.06451612903226,23000.01969489444
267.0654936461388,23290.933365678702
268.06647116324535,23903.7869685377
269.0674486803519,24321.01131372288
270.06842619745845,24521.974972697535
271.069403714565,25234.025646038528
272.07038123167155,25846.390316998906
273.0713587487781,26431.362597259358
274.07233626588464,27022.513202214162
275.0733137829912,27441.54411296772
276.07429130009774,28105.845863813596
277.0752688172043,28795.8580014967
278.07624633431084,29240.981336942616
279.0772238514174,29524.60471042847
280.07820136852393,30066.484746719856
281.0791788856305,30678.31149805393
282.08015640273703,30762.766681081994
283.0811339198436,31262.429076977307
284.08211143695013,31404.571019163788
285.0830889540567,31086.64278168522
286.0840664711632,30839.88676866409
287.0850439882698,30930.16278564405
288.0860215053764,30812.91008922441
289.0869990224829,30210.926562144745
290.0879765395895,29531.613133440744
291.088954056696,29113.833441707102
292.0899315738026,28640.54456745943
293.0909090909091,27763.035642771287
294.09188660801567,27206.316698317536
295.0928641251222,26431.037748966977
296.09384164222877,25562.224036585823
297.0948191593353,24925.77283995274
298.09579667644186,24091.21006993448
299.0967741935484,23381.275911924335
300.09775171065496,22806.304916386718
301.0987292277615,22157.618531311055
302.09970674486806,21562.693660514047
303.1006842619746,21050.83388529651
304.10166177908116,20637.8274718245
305.1026392961877,20332.38212653096
306.10361681329425,19921.846073400033
307.1045943304008,19491.84414536305
308.10557184750735,19102.943388164917
309.1065493646139,19077.770493358632
310.10752688172045,18816.765703751174
311.108504398827,18491.778973240198
312.10948191593354,18345.204634826507
313.1104594330401,18119.72132346753
314.11143695014664,17973.11777281581
315.1124144672532,17872.017312626373
316.11339198435974,17695.244241172673
317.1143695014663,17488.232388496104
318.11534701857283,17386.83619462236
319.1163245356794,17362.571654595267
320.11730205278593,17113.432920587893
321.1182795698925,17014.61125506137
322.119257086999,16961.911300759984
323.1202346041056,16921.877545992647
324.1212121212121,16977.93818807083
325.1221896383187,16815.584165519507
326.1231671554252,16715.222796044953
327.12414467253177,16882.27234548638
328.1251221896383,16650.653376900198
329.12609970674487,16616.31701398801
330.1270772238514,16674.70014302315
331.12805474095796,16697.583847322785
332.1290322580645,16777.252688172044
333.13000977517106,16676.33401240495
334.1309872922776,16536.375674613053
335.13196480938416,16708.49948382768
336.1329423264907,16596.184456395888
337.13391984359725,16569.221683565807
338.1348973607038,16609.17270887665
339.13587487781035,16407.499747865517
340.1368523949169,16356.769924215372
341.13782991202345,16366.03839389752
342.13880742913,16395.346877793036
343.13978494623655,16342.858396467655
344.1407624633431,16272.508468445834
345.14173998044964,16224.620443246973
346.1427174975562,16215.876579976146
347.14369501466274,16152.991813565166
348.1446725317693,16117.475594222751
349.14565004887584,16125.041731461468
350.1466275659824,16191.576426099271
351.14760508308893,16249.3810624859
352.1485826001955,16192.941329466616
353.14956011730203,16086.650553540754
354.1505376344086,16013.354122924222
355.1515151515151,15998.56191628032
356.1524926686217,15981.791571951622
357.1534701857282,15944.65762391042
358.1544477028348,15855.073097601326
359.1554252199413,15915.363803503866
360.15640273704787,15906.568532921201
361.1573802541544,15860.850859231748
362.15835777126097,15982.271208939937
363.1593352883675,15947.39340830767
364.16031280547406,15935.702791354403
365.1612903225806,15980.495403643656
366.16226783968716,16027.173111695256
367.1632453567937,16008.317020383043
368.16422287390026,16020.029512327574
369.1652003910068,16090.302684913651
370.16617790811335,16137.01496904529
371.1671554252199,16150.65367872271
372.16813294232645,16141.16240261966
373.169110459433,16121.844811007313
374.17008797653955,16267.279646702558
375.1710654936461,16372.709476847322
376.1720430107527,16391.45818576306
377.17302052785925,16283.078896282472
378.1739980449658,16551.688133637974
379.17497556207235,16532.879504337907
380.1759530791789,16441.96345288897
381.17693059628544,16525.811087754082
382.177908113392,16777.58458713681
383.17888563049854,16893.46019502446
384.1798631476051,16955.441385231657
385.18084066471164,17112.86514904961
386.1818181818182,17188.096713234798
387.18279569892474,17336.24811009731
388.1837732160313,17466.092872833513
389.18475073313783,17341.249351768998
390.1857282502444,17552.13813035158
391.18670576735093,17658.957173711908
392.1876832844575,17666.662652097522
393.188660801564,17782.588778800287
394.1896383186706,17933.346720088775
395.1906158357771,18088.38251275638
396.1915933528837,18255.088683695085
397.1925708699902,18492.495247231887
398.19354838709677,18400.55179025068
399.1945259042033,18490.416789310544
400.19550342130987,18822.394912550375
401.1964809384164,18856.62908785662
402.19745845552296,18847.064464527757
403.1984359726295,18978.860830365866
404.19941348973606,19269.195166196077
405.2003910068426,19230.495663675974
406.20136852394916,19181.0958592259
407.2023460410557,19181.600924277333
408.20332355816225,19252.63893980124
409.20430107526886,19247.425515232975
410.2052785923754,19271.45204306898
411.20625610948196,19228.79064841968
412.2072336265885,19057.930575905328
413.20821114369505,18795.574592270543
414.2091886608016,18763.467454066526
415.21016617790815,18736.682533473762
416.2111436950147,18545.4463701216
417.21212121212125,18459.73347774092
418.2130987292278,18367.922847532092
419.21407624633434,18276.571004798716
420.2150537634409,18191.897406647116
421.21603128054744,18301.71116230863
422.217008797654,18265.811224110726
423.21798631476054,18230.84824429618
424.2189638318671,18367.446965870004
425.21994134897363,18597.104966093062
426.2209188660802,18647.910396452073
427.22189638318673,18675.97234523193
428.2228739002933,18899.904675680827
429.2238514173998,18748.196665361844
430.2248289345064,18775.83391400768
431.2258064516129,18904.004622051038
432.2267839687195,18972.728451583727
433.227761485826,19322.38015859121
434.22873900293257,19367.059723377246
435.2297165200391,19343.119220612487
436.23069403714567,19739.02823857253
437.2316715542522,19801.0083793438
438.23264907135876,19990.525710743997
439.2336265884653,20225.656795860992
440.23460410557186,20260.79192902306
441.2355816226784,20347.55380103767
442.23655913978496,20436.125038172846
443.2375366568915,20559.451847244523
444.23851417399806,20804.65022335427
445.2394916911046,20754.202869136905
446.24046920821115,20766.847410894716
447.2414467253177,20843.687770654164
448.24242424242425,20878.126787697467
449.2434017595308,20791.035096370913
450.24437927663735,20828.717272369024
451.2453567937439,20962.335642964255
452.24633431085044,21028.967654200216
453.247311827957,21264.156006466088
454.24828934506354,21289.181772120803
455.2492668621701,21224.61743155917
456.25024437927664,21564.02073638646
457.2512218963832,21620.087154137473
458.25219941348973,21827.181818181816
459.2531769305963,22144.85426727191
460.25415444770283,22251.994824866397
461.2551319648094,22736.23598697034
462.2561094819159,23228.899474630318
463.2570869990225,23681.18370292267
464.258064516129,24140.058789416446
465.2590420332356,24420.123719251227
466.2600195503421,25105.220765831567
467.26099706744867,26079.68634231272
468.2619745845552,26698.73165836437
469.26295210166177,27522.172581194314
470.2639296187683,28676.266259831915
471.26490713587486,29919.297131492884
472.2658846529814,30473.811663083394
473.26686217008796,32297.760531775133
474.2678396871945,33563.393840469784
475.26881720430106,34335.79677984009
476.2697947214076,35719.74393965054
477.27077223851416,36720.011780804416
478.2717497556207,37618.8906376154
479.27272727272725,38308.29898383687
480.2737047898338,38348.097789843356
481.27468230694035,38392.535239051365
482.2756598240469,38172.27283067102
483.27663734115345,37620.06417267711
484.27761485826,36659.66682518298
485.27859237536654,35963.14553694775
486.2795698924731,35081.78798152997
487.28054740957964,34113.48581939714
488.2815249266862,33457.43974399622
489.2825024437928,32942.598333740934
490.28347996089934,32597.57139877483
491.2844574780059,32422.94759964836
492.28543499511244,32418.435304304527
493.286412512219,33200.01081883597
494.28739002932554,34107.50920856369
495.2883675464321,35165.60263194646
496.28934506353863,36591.807440154684
497.2903225806452,38218.71967014317
498.29130009775173,40549.46370572407
499.2922776148583,43297.52401825686
500.2932551319648,45864.692673031546
501.2942326490714,48308.80147061535
502.2952101661779,50950.694577023525
503.2961876832845,53507.10180079399
504.297165200391,55482.69550084701
505.29814271749757,57822.520040571784
506.2991202346041,59246.11577509605
507.30009775171067,60182.5905057179
508.3010752688172,61325.27267133052
509.30205278592376,61297.733581687455
510.3030303030303,60754.42123037604
511.30400782013686,59906.38355253857
512.3049853372434,58977.01210781543
513.3059628543499,56347.46999125615
514.3069403714564,53916.9216726666
515.307917888563,51383.360922593485
516.3088954056695,48421.904414738354
517.3098729227761,46048.071523755454
518.3108504398826,43576.84019031752
519.3118279569892,41150.614749704044
520.3128054740957,38895.01581629166
521.3137829912023,36891.8025827579
522.3147605083088,34927.90941822259
523.3157380254154,33164.7477320277
524.3167155425219,31704.940596469973
525.3176930596285,30333.790261716404
526.318670576735,29144.019239246965
527.3196480938416,28162.484081226175
528.3206256109481,27385.662727088347
529.3216031280547,26598.47889854112
530.3225806451612,25938.487766281218
531.3235581622678,25357.366094103025
532.3245356793743,24834.081205280076
533.3255131964809,24369.694872813616
534.3264907135874,24003.038726890296
535.327468230694,23665.628784187273
536.3284457478005,23346.93256017934
537.3294232649071,23114.076763148503
538.3304007820136,22870.48280109264
539.3313782991202,22738.127108256143
540.3323558162267,22693.393714948943
541.3333333333333,22534.628398791552
542.3343108504398,22726.09114183306
543.3352883675464,22694.74381435754
544.3362658846529,22537.413040506726
545.3372434017595,22809.031278330807
546.338220918866,22660.1027975327
547.3391984359725,22682.09532048807
548.3401759530791,22830.965408316733
549.3411534701856,22866.552354840187
550.3421309872922,22914.830948694398
551.3431085043987,22916.883410550527
552.3440860215054,22940.376661298462
553.345063538612,23089.538969066987
554.3460410557185,23152.310978641883
555.347018572825,23134.232359342986
556.3479960899316,23203.83052075002
557.3489736070381,23533.287094776246
558.3499511241447,23640.886494798295
559.3509286412512,23841.457754969055
560.3519061583578,24026.991468941622
561.3528836754643,24143.393914215478
562.3538611925709,24697.723130128248
563.3548387096774,24842.325366568915
564.355816226784,24981.327966994177
565.3567937438905,25294.59220935912
566.3577712609971,25400.83697993904
567.3587487781036,25242.40703100856
568.3597262952102,25063.740826791232
569.3607038123167,24937.640027658035
570.3616813294233,24757.78280889059
571.3626588465298,24365.676648021155
572.3636363636364,23903.483286236115
573.3646138807429,23482.649571242302
574.3655913978495,23336.831905624364
575.366568914956,22934.084082057987
576.3675464320626,22560.17543242894
577.3685239491691,22247.02212513853
578.3695014662757,21965.8059661944
579.3704789833822,21897.993497063744
580.3714565004888,21778.784939556495
581.3724340175953,21574.820537218453
582.3734115347019,21271.33267298932
583.3743890518084,21473.57946575759
584.375366568915,21332.024904402388
585.3763440860215,21107.5400592745
586.377321603128,21060.61560031138
587.3782991202346,21160.256979293867
588.3792766373411,21082.54211835019
589.3802541544477,21048.42777515324
590.3812316715542,21161.596866741747
591.3822091886608,21125.059284368275
592.3831867057673,20901.632871335703
593.3841642228739,20779.169323060112
594.3851417399804,20842.470268241104
595.386119257087,20957.411412790978
596.3870967741935,20908.999877345766
597.3880742913001,20823.447609844214
598.3890518084066,20788.14886231589
599.3900293255132,20958.78734316207
600.3910068426197,21115.72708972179
601.3919843597263,20907.950171177083
602.3929618768328,20584.56246915014
603.3939393939394,20634.115811581156
604.3949169110459,20799.417405755892
605.3958944281525,20890.183053292923
606.396871945259,20931.2005129709
607.3978494623656,20955.199490373354
608.3988269794721,20856.28034585344
609.3998044965787,20880.302768042344
610.4007820136852,20910.150769347685
611.4017595307918,20870.72799915957
612.4027370478983,20781.463998015162
613.4037145650049,20776.914530583173
614.4046920821114,20863.218537658246
615.405669599218,21014.55262126576
616.4066471163245,21111.446024217385
617.4076246334312,21135.083710807045
618.4086021505377,21137.113489661508
619.4095796676443,21128.602981166205
620.4105571847508,21109.514927827026
621.4115347018574,21018.72852239826
622.4125122189639,21106.57006633686
623.4134897360705,21253.23271473663
624.414467253177,21263.9301843851
625.4154447702836,21451.50218187789
626.4164222873901,21323.162899867908
627.4173998044967,21349.107073194413
628.4183773216032,21816.227190956335
629.4193548387098,21492.763868010516
630.4203323558163,21518.312335370458
631.4213098729228,21677.124987771713
632.4222873900294,21808.75848233187
633.423264907136,21611.46879599612
634.4242424242425,21792.535909554284
635.425219941349,21788.477660859047
636.4261974584556,21684.48226718204
637.4271749755621,22044.160732809014
638.4281524926687,21725.870723362645
639.4291300097752,21736.866195246348
640.4301075268818,21941.797589687943
641.4310850439883,22007.611096164368
642.4320625610949,21998.86400096929
643.4330400782014,21959.096552812473
644.434017595308,21918.087624274434
645.4349951124145,21913.491811517968
646.4359726295211,22101.893088647434
647.4369501466276,22106.609212294723
648.4379276637342,22070.724257842965
649.4389051808407,22082.953076184967
650.4398826979473,22263.067713642893
651.4408602150538,22142.690790232
652.4418377321604,22240.08663526039
653.4428152492669,22398.626030097934
654.4437927663735,22076.719018471
655.44477028348,22354.918457096002
656.4457478005866,22365.8026141472
657.4467253176931,22222.709506634757
658.4477028347997,22126.970143748997
659.4486803519062,22361.862107119097
660.4496578690128,22405.36908723872
661.4506353861193,22373.406059406654
662.4516129032259,22353.955212161665
663.4525904203324,22461.471702987612
664.453567937439,22732.478841432338
665.4545454545455,22729.688232013385
666.455522971652,22516.77892584149
667.4565004887586,22615.109794751417
668.4574780058651,22524.154635859883
669.4584555229717,22676.803008171995
670.4594330400782,22854.821712282876
671.4604105571848,22704.560137557593
672.4613880742913,22868.957059016382
673.4623655913979,23267.56444180171
674.4633431085044,23408.2964915163
675.464320625611,23072.536798789144
676.4652981427175,23259.355183318243
677.4662756598241,23329.5357987486
678.4672531769306,23309.435609251424
679.4682306940372,23260.37272479325
680.4692082111437,23343.46693835782
681.4701857282503,23324.40596841013
682.4711632453568,23510.28940968036
683.4721407624634,23728.469199194842
684.4731182795699,23676.150620283817
685.4740957966765,23615.39310688898
686.475073313783,23617.94219941349
687.4760508308896,23594.89868459708
688.4770283479961,23522.491250469957
689.4780058651027,23729.61659824047
690.4789833822092,23796.261783592752
691.4799608993158,23772.229251823443
692.4809384164223,23726.24507859644
693.4819159335289,23811.30505028682
694.4828934506354,23821.79119237311
695.483870967742,23825.716782835432
696.4848484848485,23855.39121002169
697.485826001955,23940.65839426824
698.4868035190616,24001.5338552778
699.4877810361681,24077.84019327426
700.4887585532747,24092.63364931442
701.4897360703812,24035.264044842283
702.4907135874878,24147.083567169284
703.4916911045943,23957.207430184335
704.4926686217009,24014.19275311895
705.4936461388074,24352.156616780892
706.494623655914,24685.558534583528
707.4956011730205,24627.442733915024
708.4965786901271,24433.542369751693
709.4975562072336,24363.464593456134
710.4985337243402,24639.24460914766
711.4995112414467,24622.26580777808
712.5004887585533,24784.553057456284
713.5014662756598,24798.77819556523
714.5024437927664,24636.187779829346
715.5034213098729,24864.806101637645
716.5043988269795,24803.95753231237
717.505376344086,24773.816009557944
718.5063538611926,24895.267293938265
719.5073313782991,25264.74007631425
720.5083088954057,25267.45690326201
721.5092864125122,25218.30441920765
722.5102639296188,25208.410996501316
723.5112414467253,25278.675859101666
724.5122189638319,25234.617389236744
725.5131964809384,25168.752645868364
726.514173998045,25362.99516978227
727.5151515151515,25613.196524752955
728.516129032258,25155.253178441453
729.5171065493646,25535.386160805338
730.5180840664711,25765.558937331636
731.5190615835777,25801.913756228554
732.5200391006842,25718.162666702927
733.5210166177908,25846.57245637811
734.5219941348973,25988.504943152053
735.5229716520039,26055.51732957144
736.5239491691104,26090.720573748866
737.524926686217,26415.089931573802
738.5259042033235,26567.1811902103
739.5268817204301,26731.77186504669
740.5278592375366,26849.32319802439
741.5288367546432,26797.365120797505
742.5298142717497,26850.82289841388
