Raman Shift,Intensity
214.3785040343428,-29.158
224.78145843945092,-164.347
235.01908334044856,-18.555
245.41130867789616,-151.093
255.63837774522108,-257.123
265.8602158678186,-485.088
276.23642015571386,39.761
286.44772684514464,980.778
296.8132434111685,177.6
307.0140349346475,-182.902
317.209615658554,-29.158
327.399989574551,-188.203
337.7442627077253,190.854
347.9241537664129,204.108
358.09885002992814,-172.299
368.2683554736213,275.678
378.5914504125685,-225.314
388.7505051753542,583.165
398.90438108190574,214.711
409.0530820913264,217.362
419.196612158652,-68.92
429.3349752349313,45.063
439.626465572117,188.203
449.75442592354375,2666.656
459.8772311743669,15.905
469.994885259468,-106.03
480.1073921097559,-360.502
490.2147556521086,-13.254
500.31697980943136,-789.924
510.41406850063504,477.135
520.5060256406359,-172.299
530.5928551403995,-225.314
540.6745609068894,-5.302
550.7511468431039,-373.756
560.8226168481124,461.231
570.888974816975,307.487
580.9502246408374,-95.427
590.8492821665859,-397.613
600.9004070215597,-76.872
610.9464353206786,15.905
620.9873709393651,222.663
631.0232177491416,198.806
641.0539796175653,-172.299
650.9230482019848,503.643
660.9437310766662,-60.967
670.9593405290361,-442.676
680.9698804110958,275.678
690.8190579752118,-164.347
700.8195493193562,5.302
710.8149825658329,-111.332
720.805361551138,164.347
730.6347081696804,-288.932
740.6150689503047,583.165
750.4345613154874,-95.427
760.404918953056,458.58
770.3702413346182,-68.92
780.174941402227,408.216
790.1302832356378,-5.302
799.925166080895,535.452
809.8705423523497,124.585
819.6556227125038,-45.063
829.5910483782136,135.188
839.3663409610526,-98.078
849.2918309472952,-79.523
859.0573504311833,92.776
868.972919634427,212.06
878.7286806683987,842.939
888.6343439553166,-50.364
898.3803611591502,-63.618
908.12155022542,26.508
918.0124213310264,-84.824
927.743888384779,315.439
937.4705381077074,-220.012
947.3466501411676,2.651
957.0635996041163,-238.568
966.7757425107702,-82.173
976.6371284824854,-5.302
986.3395928168538,-140.49
996.0372613373548,-2067.586
1005.7301375988682,-267.726
1015.5719657306544,-87.475
1025.255192198514,-333.995
1034.9336371072422,-188.203
1044.6073039976543,-561.959
1054.2761964070742,-50.364
1063.9403178693246,18.555
1073.5996719147442,-76.872
1083.4074711432768,-156.394
1093.057225399156,-84.824
1102.70222286418,-233.266
1112.3424670547538,-60.967
1121.9779614837898,246.52
1131.6087096607444,-667.989
1141.2347150916105,328.693
1150.855981278939,-129.887
1160.4725117218331,-418.819
1170.0843099159465,-63.618
1179.6913793534914,1009.936
1189.293723523253,-185.553
1198.739039559725,180.251
1208.3320185130287,42.412
1217.9202825891407,-161.696
1227.5038352631818,593.768
1237.0826800068826,291.583
1246.6568202885535,-71.57
1256.226259573108,145.791
1265.639216696829,-143.141
1275.1993388504195,516.897
1284.7547703264208,196.156
1294.3055145761757,42.412
1303.7000868433097,-7.952
1313.241541245312,98.078
1322.778318700337,-92.776
1332.310422646282,143.141
1341.686663866676,278.329
1351.2095051416618,164.347
1360.727683146746,-98.078
1370.0902294598782,-212.06
1379.5991650801443,-34.46
1388.9526223370776,-2.651
1398.4523290278594,-198.806
1407.7967104575073,166.997
1417.287201648047,694.497
1426.7730533080105,-47.714
1436.1038095471376,10.603
1445.5804658554116,140.49
1454.9021792800197,-397.613
1464.369653600741,307.487
1473.6823373500883,-21.206
1482.9905472474493,302.186
1492.444310209452,190.854
1501.7435100404182,821.733
1511.1881242589734,-304.836
1520.4783270994303,-161.696
1529.764072276041,243.869
1539.1950247490097,214.711
1548.4717924494323,-463.882
1557.7441121511074,-455.929
1567.1614324998736,159.045
1576.4247941832873,-196.156
1585.6837175051332,217.362
1594.9382056544855,622.927
1604.3374199708342,79.523
1613.5829759239496,201.457
1622.8241063047317,429.422
1632.0608142900164,-119.284
1641.2931030535765,119.284
1650.6697762525291,-212.06
1659.8931649322622,29.158
1669.1121439444323,-392.311
1678.3267164506542,739.56
1687.53688560953,-291.583
1696.7426545766284,-55.666
1705.9440265045123,-124.585
1715.1410045427183,-135.188
1724.3335918377925,-198.806
1733.5217915332687,-166.997
1742.705606769683,182.902
1751.8850406845886,-394.962
1761.0600964125188,-5.302
1770.230777085024,193.505
1779.397085830693,-148.442
1788.55902577511,-166.997
1797.7166000408906,113.982
1806.8698117476447,-371.105
1816.0186640120735,-66.269
1825.163159947857,-116.633
1834.1559155330324,0.0
1843.29177827917,21.206
1852.4232939699289,60.967
1861.550465707216,140.49
1870.673296589972,-124.585
1879.644751645923,-116.633
1888.758979994156,450.628
1897.8688767172423,166.997
1906.974444902422,-185.553
1915.9289277003045,463.882
1925.025917750907,477.135
1934.118588458099,106.03
1943.060390766601,79.523
1952.144501554074,-87.475
1961.2243021666216,344.598
1970.153450902042,265.075
1979.224709758193,-58.317
1988.1454604369865,323.392
1997.208189584475,-339.296
2006.120554048888,-145.791
2015.1747655127983,477.135
2024.0787555828572,333.995
2033.12446136566,-108.681
2042.0200888391555,-113.982
2051.057300920809,-106.03
2059.9445775734057,145.791
2068.9733079113576,-87.475
2077.852245496608,421.47
2086.8725060258803,222.663
2095.743116275291,-238.568
2104.6096010526526,-108.681
2113.6172135316083,60.967
2122.4753884816528,153.744
2131.329446630596,-148.442
2140.324437642892,588.467
2149.170203423979,-161.696
2158.011861050589,196.156
2166.994257105456,339.296
2175.8276397748195,188.203
2184.656922912145,-241.218
2193.48210937062,-159.045
2202.303202000803,885.351
2211.2647105948345,564.61
2220.077557114586,-63.618
2228.886318388424,331.344
2237.6909972563008,-106.03
2246.4915965555265,-241.218
2255.2881191208,-572.562
2264.0805677841927,-405.565
2272.8689453751285,-363.153
2281.6532547204406,174.95
2290.5774032157133,-363.153
2299.353517963282,-538.103
2308.125572976198,-471.834
2316.893571070781,291.583
2325.6575150607823,-363.153
2334.273835606975,-66.269
2343.029746164546,-323.392
2351.781610997117,143.141
2360.5294329081007,-278.329
2369.273214698267,267.726
2378.0129591658333,-153.744
2386.7486691064114,108.681
2395.48034731306,-267.726
2404.2079965762314,-278.329
2412.788641914361,0.0
2421.5083075861257,-307.487
2430.2239526247795,87.475
2438.9355798105607,5.302
2447.64319192111,-153.744
2456.204142101211,355.201
2464.9037980916983,2.651
2473.5994472792227,129.887
2482.148638712344,-151.093
2490.836348166158,-135.188
2499.5200590665554,-933.065
2508.0575159626023,121.935
2516.7333034706826,140.49
2525.405100652257,68.92
2533.930847154741,-100.729
2542.5947372405863,-159.045
2551.112711590584,-29.158
2559.768705390503,31.809
2568.2789182109263,174.95
2576.927026515033,-495.691
2585.5711635713087,79.523
2594.069721988235,217.362
2602.5644435408976,-554.007
2611.196813145194,-357.852
2619.683804921093,222.663
2628.3083212822166,-241.218
2636.7875938271245,13.254
2645.404267656864,23.857
2653.875831497382,265.075
2662.343576738021,137.839
2670.948539131641,461.231
2679.408591378582,-575.213
2687.8648328054915,164.347
2696.4581076233444,-426.771
2704.906671724595,140.49
2713.351432764532,-323.392
2721.792393310454,-60.967
2730.370143142005,74.221
2738.8034471581705,-185.553
2747.232958411034,103.379
2755.658679458633,238.568
2764.220946338093,-789.924
2772.639031576786,349.899
2781.053334313052,535.452
2789.463857095703,-45.063
2797.8706024712737,-108.681
2806.2735729839987,493.04
2814.672771175843,-336.645
2823.0681995864725,-39.761
2831.459860753297,-161.696
2839.847757211428,10.603
2848.231891493713,-485.088
2856.612266130724,119.284
2864.988883650767,201.457
2873.3617465798743,-15.905
2881.7308574418275,304.836
2890.096218758139,121.935
2898.457833048058,-220.012
2906.815702828586,225.314
2915.169830614461,402.914
2923.5202189181878,-217.362
2931.8668702499926,-416.168
2940.209787117892,469.183
2948.41001618022,34.46
2956.7455337723804,-360.502
2965.077324369493,18.555
2973.405390470638,-148.442
2981.7297345726547,360.502
2989.9117125592966,-10.603
2998.2286820744484,50.364
3006.5419370261297,108.681
3014.8514799023105,-124.585
3023.0189130185245,-172.299
3031.3211009634906,511.595
3039.619584242202,559.309
3047.776149306213,-246.52
3056.067292329164,-299.535
3064.2166442633534,-567.261
3072.500456765243,546.055
3080.780576892153,347.248
3088.919096831967,177.6
3097.1919010483834,-71.57
3105.3232317767324,540.753
3113.588729774354,-188.203
3121.712880813,87.475
3129.9710822664056,903.906
3138.0880631202745,137.839
3146.338977686973,31.809
3154.448797844241,-196.156
3162.692435164703,-296.884
3170.7951040967964,121.935
3178.894230970407,585.816
3187.127000956163,68.92
3195.218990740796,-283.63
3203.3074454664093,-116.633
3211.5293695924192,235.917
3219.610701328027,-273.027
3227.688504985643,-127.236
3235.899604670318,-554.007
3243.9702993997853,874.748
3252.03747301393,-233.266
3260.1011278165533,21.206
3268.297848330192,127.236
3276.354412870096,204.108
3284.407465536773,-318.09
3292.4570086259846,-296.884
3300.5030444314834,357.852
3308.545575245,-60.967
3316.720827896272,596.419
3324.756296283769,-55.666
3332.788266581294,-479.786
3340.816741072602,2.651
3348.8417220394404,-137.839
3356.8632117615925,-60.967
3364.8812125168406,477.135
3372.895726580995,450.628
3380.906756227865,58.317
3388.91430372934,-2.651
3396.918371355256,190.854
3404.9189613735507,-58.317
3412.9160760501472,-652.085
3420.909717649003,-180.251
3428.8998884321263,113.982
3436.886590659553,-379.058
3444.734546370892,-315.439
3452.714376952972,-249.171
3460.690745709508,-254.472
3468.663654892749,-230.615
3476.633106752961,-4628.213
3484.5991035384795,-111.332
3492.4267178764712,278.329
3500.385869715596,10.603
3508.341573175334,58.317
3516.293830496281,344.598
3524.1079469444667,273.027
3532.0533770164475,-92.776
3539.9953676218797,-37.111
3547.7993978646555,-111.332
3555.734574435446,339.296
3563.666318194715,161.696
3571.460281747888,-37.111
3579.385224652753,-2.651
3587.30674138396,-74.221
3595.090657713052,-294.233
3603.00538673612,697.148
3610.782634691175,-220.012
3618.6905847266535,-524.849
3626.461172873067,53.015
3634.362352626544,-151.093
3642.1262895150494,-331.344
3650.020707677235,-7.952
3657.778001843908,227.965
3665.665667090652,-275.678
3673.416327056992,-18.555
3681.163701429177,116.633
3689.041282322214,-132.538
3696.782035212709,-212.06
3704.6528847781447,-84.824
3712.3870246721344,-357.852
3720.117889469839,-55.666
3727.845481251112,299.535
3735.702951367959,-132.538
3743.4239470074463,206.759
3751.141675895298,-60.967
3758.989119491133,26.508
3766.700264858686,-66.269
3774.408149723422,331.344
3782.1127761528696,445.326
3789.814146212797,159.045
3797.644959575024,267.726
3805.339767031168,-294.233
3813.03132434014,-21.206
3820.7196335607214,959.572
3828.404696749953,-238.568
3836.086515963114,479.786
3843.76509325378,177.6
3851.4404306737633,-445.326
3859.112530273167,397.613
3866.7813941003615,-206.759
3874.4470242019815,222.663
3882.109422622947,84.824
3889.7685914064414,543.404
3897.4245325939337,660.037
3905.0772482251705,-29.158
3912.7267403381848,3398.264
3920.373010969284,304.836
3928.016062153074,320.741
3935.655895922435,-124.585
3943.292514308545,21.206
3950.925919340858,-193.505
3958.424585178429,389.661
3966.051624900327,-127.236
3973.675457311714,312.789
3981.296084435249,-474.485
3988.913508291902,-429.422
3996.396478310664,273.027
4004.007556831755,-60.967
4011.615438103967,214.711
4019.220124141517,254.472
4026.690583777876,151.093
4034.288940385857,-42.412
4041.8841077570687,445.326
4049.3452186808136,-479.786
4056.934068499933,42.412
4064.519735065173,-13.254
4071.971514814119,326.042
4079.550875675057,283.63
4086.996462302253,-310.138
4094.5695253181984,-180.251
4102.008926541021,-63.618
4109.575699558212,84.824
4117.008923081237,37.111
4124.569413932906,60.967
4131.996467447912,111.332
4139.550683954272,182.902
4146.971575140262,172.299
4154.519525108568,-148.442
4161.93426163181,166.997
4169.475952856366,-339.296
4228.011654085007,151.093
4235.396210255021,283.63
4242.907210725418,270.377
4250.415076793586,50.364
4257.7904449892885,95.427
4265.292102093408,84.824
4272.790630641473,124.585
4280.156827999919,-26.508
4287.649159161061,326.042
4295.138367597785,-214.711
4302.4954112134365,694.497
4309.978433811593,-18.555
4317.329402006981,-18.555
4324.8062464273535,421.47
4332.151146724958,129.887
4339.621820615692,74.221
4346.960660525576,-410.867
4354.425171522191,-79.523
4361.757958542046,-121.935
4369.216314267462,1012.587
4376.543055882612,-66.269
4383.9952639471885,-55.666
4391.315967630617,10.603
4398.762035632179,662.688
4406.07670884455,-445.326
4413.516644368407,50.364
4420.825294558097,7.952
4428.130962180556,-365.804
4435.561739780205,493.04
4442.861395497304,95.427
4450.1580741507205,74.221
4457.579710724684,29.158
4464.870388562711,227.965
4472.158094827057,-233.266
4479.570607232323,646.783
4486.852323743988,-262.424
4494.131074158497,-87.475
4501.534479210626,360.502
4508.807250907994,294.233
4516.077061971264,135.188
4523.3439142079005,-103.379
4530.735219799091,-151.093
4537.996107969229,493.04
4545.254042757973,39.761
4552.509025966887,874.748
4559.888261734326,-363.153
4567.13729547953,-209.409
4574.383383072374,37.111
4581.626526308552,-845.59
4588.866726982291,31.809
4596.103986886381,429.422
4603.338307812148,-42.412
4610.69653172473,79.523
4617.92492857972,166.997
4625.150391852971,283.63
4632.372923329975,-249.171
4639.592524794789,-172.299
4646.809198030001,-113.982
4654.022944816745,-453.279
4661.233766934747,177.6
4668.441666162253,37.111
4675.646644276094,103.379
4682.8487030516335,-265.075
4690.047844262837,254.472
4697.244069682201,673.291
4704.437381080781,503.643
4711.627780228235,-511.595
4718.815268892759,278.329
4725.999848841122,-360.502
4733.181521838655,10.603
4740.3602896492885,-387.01
4747.536154035501,-5.302
4754.583300303697,628.228
4761.753413983191,-31.809
4768.9206294863325,333.995
4776.084948569973,336.645
4783.246372989488,185.553
4790.404904498872,166.997
4797.435032206777,164.347
4804.5878338284165,254.472
4811.73774776268,-23.857
4818.884775757928,365.804
4826.028919561082,137.839
4833.044920461813,21.206
4840.183351639585,87.475
4847.3189038270575,299.535
4854.451578765569,243.869
4861.456318765864,-127.236
4868.58329482688,-135.188
4875.707398824052,-227.965
4882.703723295803,336.645
4889.822138682386,-220.012
4896.937687177771,50.364
4903.925611277555,-599.07
4911.035481404608,-498.341
4918.142489800703,-29.158
4925.122028648751,116.633
4932.223368894192,556.658
4939.197342363797,188.203
4946.293021236786,-7.952
4953.385846941688,-251.821
4960.35146024984,-731.608
4967.43863475923,-153.744
4974.398699333346,45.063
4981.480229398396,-127.236
4988.43475186592,-148.442
4995.510644227063,-119.284
5002.459631204903,243.869
5009.529892591847,76.872
5016.473350686378,-222.663
5023.537987818112,267.726
5030.475923625207,824.384
5037.534943210041,45.063
5044.467363315067,405.565
5051.397052412052,124.585
5058.447683028528,498.341
5065.371866252855,-39.761
5072.416896017057,201.457
5079.335579928018,479.786
5086.251540943114,15.905
5093.288206657562,116.633
5100.198678149784,636.18
5107.106431592307,-31.809
5114.134748143202,408.216
5121.037021830118,702.449
5127.93658230202,-209.409
5134.833431158368,530.15
5141.85065500065,265.075
5148.742037069234,-153.744
5155.630712341699,-5.302
5162.516682412504,30.995
5169.522839786696,-180.837
5176.403355996677,-538.5
5183.281171809234,-939.705
5190.156288813778,-1282.155
5197.028708598496,-1463.56
5204.021081907653,-1381.625
5210.888063918697,-934.054
5217.752353495271,-18.555
5224.613952220541,734.258
5231.472861676462,-458.58
5238.329083443728,-424.12
5245.182619101804,76.872
5252.033470228904,-302.186
5258.881638402017,164.347
5265.727125196914,-113.982
5272.569932188097,336.645
5279.532181775125,98.078
5286.369586094326,-339.296
5293.204315354014,922.462
5300.036371123795,166.997
5306.865754971979,341.947
5313.692468465706,177.6
5320.516513170878,-124.276
5327.216103720151,-424.619
5334.034863128356,-699.194
5340.850958410447,-923.755
5347.664391127459,-1074.063
5354.475162839211,-1125.88
5361.283275104273,-1054.964
5368.088729480027,-837.078
5374.891527522632,-447.977
5381.6916707870405,-31.809
5388.489160826968,-42.412
5395.162686039381,39.761
5401.954921596684,-156.394
5408.744508555763,182.902
5415.531448465517,169.648
5422.31574287366,18.555
5428.976315601984,-299.535
5435.7553708175255,71.57
5442.531785139763,137.839
5449.305560111599,-164.347
5456.076697274744,257.123
5462.724355191152,630.879
5469.490268392445,849.907
5476.253548375513,946.151
5482.893493883399,944.317
5489.651558992991,869.113
5496.406995464167,745.24
5503.039241977291,597.408
5509.789472642318,450.322
5516.5370792381145,328.693
5523.161640139158,262.424
5529.904049975114,233.266
5536.643840300443,-47.714
5543.260728941095,63.618
5549.995331531944,344.598
5556.607128017575,-506.294
5563.336548861262,204.108
5569.943259067753,-607.022
5576.667504142417,527.5
5583.269133936614,227.965
5589.988209211173,397.613
5596.58476445092,174.95
5603.298675885118,318.09
5609.890162419251,349.899
5616.598915963696,15.905
5623.185339632037,129.887
5629.888941228186,442.676
5636.470307861637,376.407
5643.16876344182,106.03
5649.745078862296,246.52
5656.438394349752,-53.015
5663.009664370256,299.535
5669.578436568787,66.269
5676.264076103718,-233.266
5682.827811578958,-440.025
5689.3890535265455,-249.171
5696.067030305661,-400.264
5702.623244186747,-235.917
5709.176968824671,326.042
5715.847296014435,294.233
5722.39600122282,177.6
5728.942221462719,151.093
5735.4859581482815,249.171
5742.146121627004,212.06
5748.684850350968,-137.839
5755.221099782248,45.063
5761.754871330697,-434.723
5768.404894310675,-198.806
5774.933669330552,352.55
5781.459970716278,-63.618
5787.983799873429,270.377
5794.505158206499,-68.92
5801.142549523138,-257.123
5807.658925557145,-45.063
5814.172834999641,182.902
5820.684279250832,119.284
5827.193259709879,-323.392
5833.699777774898,166.997
5840.203834842934,188.203
5846.7054323099655,106.03
5853.204571570954,432.073
5859.701254019747,-299.535
5866.195481049195,474.485
5872.687254051074,129.887
5879.176574416102,315.439
5885.663443533944,100.729
5892.14786279323,326.042
5898.629833581537,182.902
5905.109357285379,193.505
5911.586435290243,-87.475
5918.061068980562,241.218
5924.533259739736,198.806
5931.003008950094,280.98
5937.470317992949,238.568
5943.935188248557,262.424
5950.397621096134,182.902
5956.857617913869,445.326
5963.315180078898,196.156
5969.7703089673305,-649.434
5976.105705888956,164.347
5982.556016527509,87.475
5989.003897986593,190.854
5995.449351638199,341.947
6001.8923788532775,119.284
6008.215900781644,82.173
6014.654123287393,106.03
6021.089923438405,-310.138
6027.523302601519,103.379
6033.954262142564,119.284
6040.265942433929,416.168
6046.692110755517,180.251
6053.115863521547,106.03
6059.420472023492,230.615
6065.839441620141,188.203
6072.255999718647,164.347
6078.553548309683,227.965
6084.965331270854,-23.857
6091.374706782226,588.467
6097.665207314269,257.123
6104.06981570238,265.075
6110.472020679961,-103.379
6116.755484978421,198.806
6123.152930828903,82.173
6129.431725134898,217.362
6135.824417162912,241.218
6142.098546680769,273.027
6148.486490183052,381.708
6154.872039648391,-723.655
6161.139160374798,352.55
6167.519969269015,161.696
6173.782438208022,360.502
6180.158511808193,363.153
6186.416334137088,98.078
6192.787677712448,124.585
6199.040858600842,214.711
6205.291741972564,299.535
6211.656022022646,212.06
6217.902271670246,116.633
6224.261834810408,-18.555
6230.503455884398,174.95
6236.742785809074,-267.726
6243.095304999864,426.771
6249.330014038809,137.839
6255.677829386121,-222.663
6261.907922670827,-60.967
6268.1357311500615,108.681
6274.476522051649,135.188
6280.699722436162,660.037
6286.920641805642,564.61
6293.139281413962,-37.111
6299.470738832184,259.774
6305.684780516531,763.417
6311.896546218988,79.523
6318.106037189755,47.714
6324.428181717434,-21.206
6330.633084905065,-180.251
6336.835717129172,-50.364
6343.036079636258,-463.882
6349.234173671932,95.427
6355.544716640681,705.1
6361.738235515753,1233.596
6367.929489673777,1670.396
6374.118480356665,1984.522
6380.305208805476,2144.999
6386.489676260331,2120.849
6392.671883960451,1881.098
6398.851833144166,1394.765
6405.143905470883,630.879
6411.319299566196,-127.236
6417.492438877496,55.666
6423.663324639478,7.952
6429.831958085924,-326.042
6435.998340449718,-127.236
6442.162472962846,-307.487
6448.324356856407,-363.153
6454.483993360576,220.012
6460.641383704664,249.171
6466.79652911704,164.347
6472.949430825232,251.821
6479.100090055821,675.942
6485.248508034543,667.989
6491.280888225534,458.58
6497.424868822251,199.724
6503.5666118162335,-61.341
6509.706118429633,-300.065
6515.843389883739,-491.907
6521.978427398899,-612.322
6528.111232194642,-636.758
6534.241805489546,-540.679
6540.256680928833,-299.535
6546.382836142315,50.364
6552.506763482961,275.678
6558.628464165849,267.726
6564.747939405184,607.022
6570.751928194237,-241.218
6576.866997341494,286.281
6582.979844660076,1001.984
6589.090471360658,-262.424
6595.0857801617385,79.523
6601.192010321647,180.251
6607.296023467985,29.158
6613.39782080795,707.751
6619.384468430493,389.661
6625.481878753591,172.299
6631.577076864334,-1073.555
6637.5572509579,201.457
6643.64806916556,151.093
6649.623946782151,495.691
6655.71038980603,283.63
6661.794626582923,-129.887
6667.764048126817,-235.917
6673.843916808139,318.09
6679.809053455574,1073.555
6685.884558743659,800.527
6691.957863728712,678.592
6697.916561697035,198.806
6703.985510351609,100.729
6709.939934962422,137.839
6716.004531971987,389.661
6721.954687820689,469.183
6728.014937863976,477.135
6733.960829539363,625.577
6739.904610751524,-315.439
6745.95836937274,-979.02
6751.897893261092,-1075.848
6757.947316561804,-777.079
6763.8825876987685,-253.881
6769.927680334353,322.591
6775.858703285812,781.177
6781.787623684751,950.71
6787.826249230238,660.037
6793.750928258974,198.806
6799.673508107371,739.56
6805.705676935038,74.221
6811.624022213946,326.042
6817.540271677499,447.977
6823.5659941374615,540.753
6829.478015817709,212.06
6835.387945040406,-39.761
6841.407231460638,71.57
6847.312939671727,691.846
6853.216558775894,111.332
6859.118089881435,405.565
6865.017534095896,-137.839
6871.026143398485,-212.06
6876.921377827312,312.789
6882.814528703813,-151.093
6888.705597132364,455.929
6894.594584216582,302.186
6900.592544785228,-53.015
6906.477333270021,-108.681
6912.360043737404,196.156
6918.240677287846,376.407
6924.119235021055,-267.726
6929.995718035963,193.505
6935.870127430717,-129.887
6941.742464302697,42.412
6947.6127297485,201.457
6953.480924863958,98.078
6959.347050744116,495.691
6965.21110848328,1969.509
6971.073099174937,-567.261
6976.93302391185,-60.967
6982.79088378598,-100.729
6988.64667988853,166.997
6994.500413309928,421.47
7000.35208513985,-103.379
7006.201696467178,-13.254
7012.049248380063,413.517
7017.894741965851,-164.347
7023.738178311156,296.884
7029.579558501813,161.696
7035.418883622879,866.796
7041.2561547586665,-5.302
7047.091372992727,169.648
7052.924539407839,-58.317
7058.645653010426,546.055
7064.474757695687,283.63
7070.301813785409,341.947
7076.126822359336,500.992
7081.949784496486,-278.329
7087.660891581778,-275.678
7093.479802640664,495.691
7099.296670474898,665.339
7105.111496160462,124.585
7110.814624476749,66.269
7116.625407570507,479.786
7122.434151718757,-177.6
7128.2408579944895,31.809
7133.936024250346,145.791
7139.73869639702,182.902
7145.53933386541,-53.015
7151.22854892195,201.457
7157.025158582874,-63.618
7162.819736753059,18.555
7168.503009933542,235.917
7174.293566604632,418.819
7180.082094965896,153.744
7185.759435574095,508.944
7191.54394873148,-214.711
7197.2173519438,323.392
7202.997854073568,620.276
7208.667323984642,233.266
7214.443819257263,249.171
7220.109359956041,418.819
7225.881852536215,543.404
7231.54346810597,201.457
7237.311962152613,1760.099
7242.969656670975,177.6
7248.734156337254,477.135
7254.387933876205,527.5
7260.148443309525,71.57
7265.798307935409,352.55
7271.554831277448,63.618
7277.20078705097,588.467
7282.953328437674,198.806
7288.59537941395,402.914
7294.235498085545,355.201
7299.982093204053,-55.666
7305.618313131272,-177.6
7311.252603748333,68.92
7316.993261813666,222.663
7322.623659726734,-45.063
7328.252131317968,-143.141
7333.9868615261075,392.311
7339.611446441268,522.198
7345.234108016753,37.111
7350.962919544712,675.942
7356.581700459581,159.045
7362.198561010817,617.625
7367.813502182726,291.583
7373.426524958988,166.997
7379.145517410223,-665.339
7384.7546694986595,-108.681
7390.361906157261,447.977
7395.967228366993,410.867
7401.570637108154,220.012
7407.279835705631,381.708
7412.879383697611,522.198
7418.477021176703,-58.317
7424.072749120482,-60.967
7429.666568505905,127.236
7435.258480309247,-209.409
7440.848485506111,429.422
7446.436585071431,620.276
7452.022779979503,432.073
7457.607071203925,667.989
7463.296794702215,273.027
7468.877244915177,-58.317
7474.455794380043,127.236
7480.032444067743,-7.952
7485.607194948596,79.523
7491.18004799222,-140.49
7496.751004167574,-196.156
7502.2129850032,1577.197
7507.7801867781745,440.025
7513.345494569261,129.887
7518.908909342786,569.912
7524.470432064445,39.761
7530.03006369928,906.557
7535.587805211653,1126.57
7541.1436575652915,116.633
7546.697621723266,220.012
7552.249698647978,-349.899
7557.693172648,280.98
7563.241514237732,-323.392
7568.787971459049,551.356
7574.332545271769,731.608
7579.87523663506,294.642
7585.416046507413,294.642
7590.848475703144,294.642
7596.385561603231,294.642
7601.920768865631,294.642
7607.454098446255,294.642
7612.879194899509,294.642
7618.4088080453,294.642
7623.936546354853,294.642
7629.462410781522,294.642
7634.880189328982,294.642
7640.402344837916,294.642
7645.9226293018255,294.642
7651.334937948188,294.642
7656.851519109852,294.642
7662.260197498763,294.642
7667.773079083498,294.642
7673.284094334183,294.642
7678.687316594296,294.642
7684.194637864675,294.642
7689.7000956236625,294.642
7695.097870006797,294.642
7700.599639370841,294.642
7705.993798107356,294.642
7711.491882781789,294.642
7716.882429503323,124.585
7722.376833188511,400.264
7727.763771521855,654.736
7733.254497913214,21.206
7738.637831480286,450.628
7744.124884268305,310.138
7749.504616686187,-259.774
7754.987999556393,577.864
7760.364134437317,196.156
7765.738489349154,58.317
7771.216392021717,177.6
7776.587154788423,201.457
7782.061396717661,307.487
7787.428570939446,-169.648
7792.793969640064,39.761
7798.262745065967,103.379
7803.624560595526,-5.302
7808.984603262106,389.661
7814.447920368751,-273.027
7819.804385227417,355.201
7825.159079875983,58.317
7830.616946831127,206.759
7835.968069024231,172.299
7841.317423654822,119.284
7846.665011598543,326.042
7852.115636126822,347.248
7857.459658723532,474.485
7862.801917273948,-29.158
7868.142412651388,421.47
7873.481145728587,294.233
7878.922746278997,212.06
7884.257922859626,74.221
7889.59133977185,-108.681
7894.922997886111,82.173
7900.252898072242,-113.982
7905.581041199541,347.248
7910.907428136696,561.959
7916.336446752692,500.992
7921.65928952102,-50.364
7926.980378718883,-217.362
7932.29971521271,10.603
7937.617299868325,278.329
7942.933133550996,-66.269
7948.247217125423,408.216
7953.559551455743,646.783
7958.870137405502,286.281
7964.178975837705,371.105
7969.486067614758,585.816
7974.791413598527,204.108
7980.0950146503055,299.535
7985.396871630804,402.914
7990.696985400187,339.296
7995.995356818043,58.317
8001.291986743403,-26.508
8006.586876034729,524.849
8011.880025549901,180.251
8017.067699705829,800.527
8022.357406311574,514.246
8027.645375694708,50.364
8032.931608710882,95.427
8038.216106215201,151.093
8043.498869062179,437.374
8048.779898105804,991.381
8053.955695240969,145.791
8059.233293192043,106.03
8064.509159881611,-485.088
8069.783296161415,530.15
8074.952338977277,-92.776
8080.223050878609,-37.111
8085.492034905405,858.844
8090.759291907168,593.768
8095.921593616502,792.575
8101.185432936367,13.254
8106.447547759821,-79.523
8111.604810570996,569.912
8116.863512715307,1126.57
8122.120492886879,-151.093
8127.272724173963,490.389
8132.526296659391,278.329
8137.778149690843,-5.302
8142.925356813517,808.479
8148.173807142077,371.105
8153.4205405305,95.427
8158.562730834117,283.63
8163.806066493191,315.439
8168.944927307508,307.487
8174.184868536668,418.819
8179.32040309432,357.852
8184.55695318873,1039.095
8189.689164718173,522.198
8194.922326968728,-111.332
8200.051218694258,394.962
8205.280996387602,318.09
8210.406571529322,161.696
8215.632967947844,516.897
8220.7552297217,328.693
8225.978248143558,601.721
8231.097199761349,609.673
8236.316843460441,644.133
8241.43248812982,116.633
8246.546496881761,-461.231
8251.76110130029,344.598
8256.871807891675,506.294
8261.98088093357,177.6
8267.190453365733,296.884
8272.296229025691,-71.57
8277.400373499535,-267.726
8282.604921225458,-82.173
8287.705773086778,392.311
8292.804996120794,556.658
8298.004526406577,389.661
8303.100461588281,323.392
8308.194770296956,1251.155
8313.28745331115,246.52
8318.48031600209,355.201
8323.569717486189,182.902
8328.657495624051,-74.221
8333.743651192239,273.027
8338.828184966831,1012.587
8344.012739449463,90.126
8349.093999566121,-198.806
8354.17364022991,379.058
8359.251662214898,569.912
8364.328066294685,742.211
8369.402853242376,413.517
8374.476023830553,580.515
8379.547578831349,418.819
8384.718901354245,429.422
8389.787195221597,543.404
8394.853875830348,-299.535
8399.91894395064,212.06
8404.98240035212,599.07
8410.044245803958,-2.651
8415.104481074803,432.073
8420.163106932847,-278.329
8425.220124145773,524.849
8430.275533480788,1300.413
8435.32933570461,1770.368
8440.381531583458,1972.507
8445.432121883085,1944.627
8450.48110736873,1724.524
8455.528488805172,1349.998
8460.473367100913,858.844
8465.51757477424,365.804
8470.560180674485,246.52
8475.601185564497,766.067
8480.64059020661,74.221
8485.67839536271,559.309
8490.714601794163,151.093
8495.749210261878,-238.568
8500.681576948675,140.49
8505.713023691114,37.111
8510.742874734438,241.218
8515.771130837642,609.673
8520.797792759218,432.073
8525.722375497866,344.598
8530.745883175656,440.025
8535.7677989293,540.753
8540.788123515384,683.894
8545.706498587671,302.186
8550.723674892208,440.025
8555.739262280982,588.467
8560.652997083213,561.959
8565.665440644778,490.389
8570.676297538128,485.088
8575.585398634048,-127.236
8580.593116146138,262.424
8585.599249233324,442.676
8590.503723174297,376.407
8595.506721317797,132.538
8600.508137275468,670.64
8605.40799060051,270.377
8610.406276043708,31.809
8615.303062904772,-100.729
8620.298220771765,426.771
8625.191944046568,164.347
8630.18397727198,511.595
8635.074639834631,376.407
8640.063551349394,349.899
8644.951156070434,453.279
8649.936948801806,392.311
8654.821498548154,373.756
8659.804175419777,925.112
8664.685673054784,188.203
8669.665236986599,832.336
8674.543685370048,66.269
8679.520139278378,-416.168
8684.395541266465,323.392
8689.2694364983,-288.932
8694.241246509358,707.751
8699.112099609058,1094.761
8703.981448060618,-68.92
8708.948620671701,-90.126
8713.81493124642,196.156
8718.779005433622,347.248
8723.642280973501,-243.869
8728.504055374753,614.974
8733.364329332315,387.01
8738.32224658698,636.18
8743.179491154478,341.947
8748.035237374625,418.819
8752.889485940628,575.213
8757.8412577103,275.678
8762.692482517024,607.022
8767.542211760752,670.64
8772.39044613298,922.462
8777.336083836857,188.203
8782.18130006664,447.977
8787.02502351089,477.135
8791.867254859393,461.231
8796.707994801498,975.477
8801.547244026118,288.932
8806.385003221756,880.05
8811.319956958603,37.111
8816.154707786565,-45.063
8820.987970662514,159.045
8825.819746273257,434.723
8830.650035305174,511.595
8835.478838444196,474.485
8840.306156375878,569.912
8845.131989785303,294.233
8849.956339357173,392.311
8854.779205775758,227.965
8859.60058972489,514.246
8864.420491888006,440.025
8869.238912948098,850.891
8874.055853587757,487.738
8878.871314489159,-736.909
8883.685296334032,344.598
8888.497799803714,280.98
8893.308825579123,516.897
8898.118374340735,747.512
8902.926446768637,490.389
8907.634964476681,633.53
8912.440116370435,249.171
8917.243793954342,294.233
8922.045997906822,318.09
8926.846728905857,644.133
8931.645987629043,652.085
8936.443774753548,434.723
8941.142221650607,-174.95
8945.937097605834,559.309
8950.73050397759,617.625
8955.522441441404,454.558
8960.215160665939,307.862
8965.004192282166,192.498
8969.791757000756,123.44
8974.577855495572,115.661
8979.26485751475,184.124
8984.048055470721,343.805
8988.829789208343,609.673
8993.51251749025,768.718
8998.291354655303,212.06
9003.068729603765,166.997
9007.747189991118,-84.824
9012.521672326067,95.427
9017.294694442531,686.545
9021.968892767374,402.914
9026.739026222178,-304.836
9031.41039612206,-2486.405
9036.17764353675,180.251
9040.943434050514,652.085
9045.610551571128,416.168
9050.373459984672,519.547
9055.037755503963,463.882
9059.797784430888,90.126
9064.45926050758,466.532
9069.216412558366,379.058
9073.87507174812,718.354
9078.629349530078,159.045
9083.285194385431,275.678
9088.036600502714,485.088
9092.689633573158,29.158
9097.438170626783,352.55
9102.088394458704,331.344
9106.73722909284,850.891
9111.481482183284,508.944
9116.12751137963,551.356
9120.868901881862,561.959
9125.512128179163,241.218
9130.153968412898,917.16
9134.891084617178,508.944
9139.53012574118,-10.603
9144.167782675046,803.178
9148.9006303586,535.452
9153.535491965213,649.434
9158.168971251744,445.326
9162.801068836525,312.789
9167.528243916331,307.487
9172.157551197888,848.241
9176.785478643267,37.111
9181.412026869286,652.085
9186.13353953768,922.462
9190.757302472506,662.688
9195.37968804908,288.932
9200.000696882766,426.771
9204.620329588544,124.585
9209.334785850184,469.183
9213.951639506451,241.218
9218.567118890363,776.67
9223.181224615444,641.482
9227.79395729483,103.379
9232.40531754132,421.47
9237.015305967328,503.643
9241.623923184923,527.5
9246.23116980579,1155.728
9250.932987640888,819.082
9255.537466379788,842.939
9260.140576367572,633.53
9264.742318214474,978.127
9269.342692530376,333.995
9273.941699924766,352.55
9278.539341006806,328.693
9283.135616385269,259.774
9287.730526668583,413.517
9292.324072464791,487.738
9296.91625438162,527.5
9301.411444872112,312.789
9306.00092923447,384.359
9310.589051525738,652.085
9315.175812352172,731.608
9319.761212319692,1031.142
9324.345252033823,752.814
9328.927932099774,485.088
9333.509253122353,580.515
9338.08921570604,10.603
9342.572446701386,437.374
9347.149722488744,-2.651
9351.7256416359,145.791
9356.300204745894,787.273
9360.873412421412,530.15
9365.350032145325,124.585
9369.920558965528,-21.206
9374.489732144635,379.058
9379.05755228394,384.359
9383.528899030936,-182.902
9388.09404305015,251.821
9392.657835818722,381.708
9397.125240831178,429.422
9401.6863610176,308.709
9406.246131739394,69.691
9410.80455359534,-203.408
9415.266701898625,-426.376
9419.822455888205,-514.99
9424.281993052333,-385.032
9428.835081516963,47.714
9433.38682407955,474.485
9437.84243511156,-95.427
9442.391515668474,514.246
9446.84452129656,522.198
9451.390942182352,580.515
9455.93602012123,585.816
9460.385108237591,103.379
9464.927530014324,416.168
9469.374018445214,379.058
9473.913786387537,98.078
9478.35767741084,254.472
9482.894793843763,455.929
9487.33608973474,349.899
9491.87055698055,-5.302
9496.30926001177,344.598
9500.74668109923,-47.714
9505.277192831463,455.929
9509.71202445114,426.771
9514.23989277796,524.849
9518.672137195834,527.5
9523.103102466685,440.025
9527.62702390948,471.834
9532.05540536064,121.935
9536.57668916292,447.977
9541.002489053764,418.819
9545.42701258622,336.645
9549.850260312329,442.676
9554.36630345335,280.98
9558.78697410632,379.058
9563.206370618926,206.759
9567.718482324255,227.965
9572.13530512818,612.324
9576.550855454823,-45.063
9580.965133854,296.884
9585.47202083257,450.628
9589.883729992052,352.55
9594.294168883298,37.111
9598.703338054846,166.997
9603.111238054931,980.778
9607.611613766734,225.314
9612.016950092931,227.965
9616.421018902103,540.753
9620.823820741218,540.753
9625.225356156909,31.809
9629.625625695517,649.434
9634.02462990307,347.248
9638.422369325252,286.281
9642.81884450748,508.944
9647.21405599481,614.974
9651.701478874824,511.595
9656.094137748323,347.248
9660.485534571855,766.067
9664.875669889248,540.753
9669.264544244,1020.539
9673.65215817932,296.884
9678.03851223808,58.317
9682.423606962846,925.112
9686.807442895892,246.52
9691.19002057915,585.816
9695.478134071804,620.276
9699.858223622705,498.341
9704.23705653629,596.419
9708.614633353289,644.133
9712.990954614088,869.447
9717.36602085878,180.251
9721.739832627154,389.661
9726.112390458671,583.165
9730.483694892511,447.977
9734.760779687776,437.374
9739.129605581998,-106.03
9743.497179682729,941.017
9747.863502527893,196.156
9752.228574655115,538.103
9756.499562339395,880.05
9760.862161224974,-418.819
9765.223510992222,1176.934
9769.583612177565,159.045
9773.849736751828,214.711
9778.207368918504,736.909
9782.563754099236,848.241
9786.918892829211,844.521
9791.18016259473,798.08
9795.532836519418,725.373
9799.884265585692,642.855
9804.14190615754,566.98
9808.490873566669,514.209
9812.83859770701,500.992
9817.09261371952,580.515
9821.437879345483,792.575
9825.689490172908,572.562
9830.032299369228,220.012
9834.373867936378,151.093
9838.621861899856,368.455
9842.960977171238,315.439
9847.206571054325,132.538
9851.543235108787,212.06
9855.786430944943,697.148
9860.12064585897,286.281
9864.361445679362,227.965
9868.693213527116,296.884
9872.931619360628,217.362
9877.26094221391,418.819
9881.49695608711,485.088
9885.823836015392,344.598
9890.057459952584,201.457
9894.289902518456,755.464
9898.613135046206,819.082
9902.843190697367,569.912
9907.163985452502,445.326
9911.391656207565,824.384
9915.61814808206,511.595
9919.935303126713,705.1
9924.15941311792,442.676
9928.38234571751,901.256
9932.695865648708,654.736
9936.91641937277,-222.663
9941.135797191648,230.615
9945.445686598703,212.06
9949.662688544726,310.138
9953.878516069532,630.879
9958.09316966365,387.01
9962.398234183594,-667.989
9966.61051589339,249.171
9970.821625153134,638.831
9975.031562452265,683.894
9979.240328279942,458.58
9983.53937957713,174.95
9987.745778488254,310.138
9991.95100740443,-119.284
9996.155066813732,299.535
10000.357957203963,299.535
10004.55967906266,318.09
10008.760232877092,657.386
10013.050897176752,532.801
10017.249090997648,461.231
10021.446118245014,726.306
10025.641979405023,180.251
10029.83667496358,349.899
10034.03020540632,220.012
10038.222571218605,776.67
10042.413772885537,607.022
10046.603810891938,198.806
10050.79268572236,82.173
10054.980397861098,487.738
10059.16694779218,440.025
10063.352335999334,686.545
10067.536562966066,23.857
10071.719629175575,-79.523
10075.90153511081,495.691
10080.082281254454,736.909
10084.26186808891,604.371
10088.440296096323,689.195
10092.52676786215,379.058
10096.702904826674,177.6
10100.877884398516,249.171
10105.051707058765,1298.868
10109.224373288234,519.547
10113.395883567471,760.766
10117.475590772649,458.58
10121.64481569536,148.442
10125.812886097472,437.374
10129.979802458443,519.547
10134.145565257517,387.01
10138.219652237512,633.53
10142.383134400929,344.598
10146.545464428116,689.195
10150.706642797257,469.183
10154.776246850048,617.625
10158.935148346747,787.273
10163.092899607942,193.505
10167.159152430871,148.442
10171.314629631466,506.294
10175.468958016776,238.568
10179.531863747628,752.814
10183.683920879565,861.494
10187.834830614069,84.824
10191.894393383842,129.887
10196.043034667582,530.15
10200.190529969435,373.756
10204.246753902304,477.135
10208.391983551395,683.894
10212.44599199288,882.7
10216.588957845182,360.502
10220.640752609928,-127.236
10224.781456519388,596.419
10228.831039420063,522.198
10232.969483238625,779.321
10237.016856085897,432.073
10241.15304166346,384.359
10245.19820626604,376.407
10249.332135450502,201.457
10253.375093615126,434.723
10257.506768252357,333.995
10261.547521783785,445.326
10265.58718577827,445.326
10269.715494418666,516.897
10273.752956473523,37.111
10277.87901516247,-10.603
10281.91427707755,596.419
10285.948451675904,1004.635
10290.0711512271,622.927
10294.10312837192,500.992
10298.13401952729,739.56
10302.253364041218,-620.276
10306.282060424935,-29.158
10310.309672144327,-355.201
10314.425665714796,145.791
10318.451085340042,66.269
10322.475421623927,360.502
10326.498675003731,633.53
10330.610215200984,432.073
10334.631280043344,514.246
10338.651263301725,381.708
10342.670165412448,172.299
10346.687986811625,-543.404
10350.704727935088,294.233
10354.80961387438,633.53
10358.824171771252,214.711
10362.837650708272,47.714
10366.850051120337,516.897
10370.86137344214,710.401
10374.871618108127,108.681
10378.880785552512,405.565
10382.888876209276,100.729
10386.984923052532,389.661
10390.990837530662,1102.713
10394.995676531347,220.012
10398.999440487634,914.509
10403.00212983234,2107.348
10407.003744998048,2886.669
10411.004286417105,177.6
10415.003754521616,485.088
10419.002149743475,-164.347
10422.999472514348,275.678
10426.995723265634,185.553
10430.990902428544,339.296
10434.985010434026,278.329
10438.889325180557,106.03
10442.881315942828,442.676
10446.872236829608,675.942
10450.86208827093,429.422
10454.85087069661,-140.49
10458.838584536235,678.592
10462.82523021915,296.884
10466.810808174472,447.977
10470.706785742112,402.914
10474.690253232264,1184.886
10478.672654271297,225.314
10482.653989287404,265.075
10486.634258708573,26.508
10490.525047770485,477.135
10494.50321094102,771.369
10498.480309789697,543.404
10502.45634474356,596.419
10506.342995080442,-74.221
10510.316927143493,371.105
10514.2897965821,23.857
10518.261603822417,834.987
10522.144122034457,575.213
10526.113829736623,190.854
10530.082476508169,628.228
10533.961905709137,567.261
10537.92845544769,371.105
10541.89394552126,326.042
10545.770289396216,294.233
10549.733684937964,455.929
10553.607981637546,577.864
10557.569284306495,265.075
10561.52952941227,387.01
10565.400746905443,583.165
10569.35890163298,797.876
10573.22807600992,-58.317
10577.184142013864,-169.648
10581.05127489159,445.326
10585.005253824836,461.231
10588.87034681866,37.111
10592.822240332363,577.864
10596.685295055897,864.145
10600.635104799476,-148.442
10604.496122864624,137.839
10608.443850485746,394.962
10612.302833502728,302.186
10616.160811022752,424.12
10620.10543022464,280.98
10623.9613750996,106.03
10627.903916281392,-1611.657
10631.757830117263,-561.959
10635.61074043666,400.264
10639.550179321655,95.427
10643.401060998756,463.882
10647.250940343372,487.738
10651.187280591832,7.952
10655.035133687184,108.681
10658.881985632182,1049.698
10662.815230898605,-323.392
10666.660058983602,726.306
10670.50388709854,-204.108
10674.346715633475,776.67
10678.275847672114,447.977
10682.116655520924,185.553
10685.956464967534,10.603
10689.795276401208,500.992
10693.633090210977,-121.935
10697.557095575656,416.168
10701.39289265285,74.221
10705.227693280882,164.347
10709.061497847986,79.523
10712.894306742182,575.213
10716.726120351308,816.432
10720.55693906298,-352.55
10724.386763264632,13.254
10728.302600658342,103.379
10732.130414421008,-113.982
10735.957234843503,76.872
10739.783062312445,206.759
10743.60789721425,816.432
10747.431739935131,79.523
10751.254590861114,662.688
10755.076450378,143.141
10758.897318871408,214.711
10762.717196726757,190.854
10766.536084329256,204.108
10770.353982063916,524.849
10774.170890315563,-92.776
10777.98680946881,39.761
10781.801739908076,196.156
10785.615682017564,-39.761
10789.341989100834,39.761
10793.153978142976,190.854
10796.964979998098,145.791
10800.774995049622,331.344
10804.58402368077,347.248
10808.392066274577,-135.188
10812.199123213884,-29.158
10816.005194881312,-691.846
10819.723813349112,39.761
10823.52793799081,320.741
10827.331078498672,304.836
10831.133235254529,607.022
10834.848029253728,-116.633
10838.64824198676,-246.52
10842.447472103491,26.508
10846.24571998498,135.188
10849.956695412544,302.186
10853.753002267928,437.374
10857.548328021428,365.804
10861.342673053316,-84.824
10865.049835794096,379.058
10868.842242790466,267.726
10872.63367019626,100.729
10876.337982712816,-397.613
10880.12747431772,254.472
10883.82989575329,153.744
10887.617453039476,-151.093
10891.404032613404,-92.776
10895.103609289945,970.175
10898.88825677408,193.505
10902.585945994537,363.153
10906.368662867266,813.781
10910.150403901262,129.887
10913.845253813895,-575.213
10917.62506645972,-164.347
10921.318032531915,394.962
10925.095918264182,15.905
10928.787001936307,-177.6
10932.562962228116,193.505
10936.252164939066,-257.123
10939.940438510435,227.965
10943.713524449233,119.284
10947.399919206764,381.708
10951.171083372872,7.952
10954.855600751816,-5.302
10958.62484461311,-214.711
10962.307486047235,432.073
10965.989200819247,-45.063
10969.755577991731,-206.759
10973.435418958636,-204.108
10977.114334320191,-79.523
10980.877848072992,405.565
10984.554891765896,408.216
10988.231010908596,469.183
10991.991664505884,-39.761
10995.665914113146,416.168
10999.33924022374,265.075
11003.011643185791,164.347
11006.768495629847,0.0
11010.439031890255,145.791
11014.108646053544,259.774
11017.777338467138,1208.743
11021.530395518184,55.666
11025.197224058184,121.935
11028.863131897786,39.761
11032.528119383707,270.377
11036.192186862492,384.359
11039.855334680517,233.266
11043.602720353196,55.666
11047.264008520897,-2.651
11050.924378073953,-53.015
11054.58382935806,344.598
11058.242362718707,-127.236
11061.899978501227,294.233
11065.556677050785,45.063
11069.21245871235,-106.03
11072.867323830738,-188.203
11076.521272750586,-121.935
11080.174305816368,-238.568
11083.826423372368,-172.299
11087.477625762698,-376.407
11091.127913331318,140.49
11094.777286422,455.929
11098.425745378345,-60.967
11102.073290543767,113.982
11105.719922261547,-47.714
11109.36564087477,-357.852
11113.010446726335,315.439
11116.654340159006,-90.126
11120.29732151534,-212.06
11123.93939113774,-45.063
11127.580549368427,31.809
11131.22079654947,-212.06
11134.77550763161,79.523
11138.413954906267,-21.206
11142.051492148485,241.218
11145.688119699626,-76.872
11149.323837900913,-569.912
11152.958647093375,-18.555
11156.508048620988,180.251
11160.141061938251,344.598
11163.773167260852,55.666
11167.40436492916,201.457
11170.950240228543,-235.917
11174.579644697213,302.186
11178.208142523734,569.912
11181.751381744987,79.523
11185.378088371155,-113.982
11189.003889365817,153.744
11192.628785068173,-341.947
11196.16850723805,286.281
11199.79161440632,29.158
11203.413817290922,87.475
11206.950910239968,-304.836
11210.571326582844,-442.676
11214.10667518314,34.46
11217.725306305692,286.281
11221.343034819707,-201.457
11224.875759069631,-124.585
11228.49170435076,657.386
11232.022687482247,-169.648
11235.636850848638,172.299
11239.166094148528,-238.568
11242.778476917028,413.517
11246.305981670925,-257.123
11249.91658515709,151.093
11253.442352649325,212.06
11257.05117816741,113.982
11260.575209681025,697.148
11264.182258544,198.806
11267.704555360804,-286.281
11271.309828880325,-193.505
11274.83039228086,113.982
11278.350099642112,-341.947
11281.952723030843,60.967
11285.470698886753,-243.869
11288.987819646914,-119.284
11292.587795825824,-159.045
11296.103186988752,233.266
11299.70139304264,100.729
11303.215055883851,604.371
11306.727865201254,-630.879
11310.23982130582,-7.952
11313.834511810855,230.615
11317.34474212601,567.261
11320.8541201677,516.897
11324.446172200132,302.186
11327.953826352135,-564.61
11331.460629168672,-156.394
11334.96658095964,39.761
11338.471682034791,493.04
11342.059356881087,-39.761
11345.562737216636,-87.475
11349.06526777208,-503.643
11352.566948856567,-5.302
11356.067780779093,98.078
11359.56776384851,-416.168
11363.1502007606,-214.711
11366.648466857394,-7.952
11370.145885034064,538.103
11373.642455598843,63.618
11377.138178859836,440.025
11380.633055125,815.382
11384.1270847021,923.849
11387.620267898808,837.438
11391.112605022612,628.165
11394.60409638087,368.036
11398.094742280777,129.065
11401.584543029392,-16.734
11405.073498933603,2.651
11408.561610300185,100.729
11412.048877435727,-121.935
11415.5353006467,60.967
11419.020880239405,265.075
11422.505616520008,-506.294
11425.989509794525,614.974
11429.472560368817,548.706
11432.954768548592,-7.952
11436.43613463944,-37.111
11439.916658946764,222.663
11443.313501961433,-55.666
11446.79236364179,333.995
11450.270384446749,-79.523
11453.74756468115,405.565
11457.22390464968,-683.894
11460.699404656869,-180.251
11464.091344754375,408.216
11467.565185732994,-137.839
11471.038187655771,-607.022
11474.51035082668,-71.57
11477.981675549512,13.254
11481.369541233144,-95.427
11484.839209915755,-217.362
11488.30804105362,-87.475
11491.693473394258,554.007
11495.16065027576,-331.344
11498.626990514544,-29.158
11502.092494413417,-45.063
11505.474679896604,-495.691
11508.938531918346,636.18
11512.401548500471,-355.201
11515.78130675673,238.568
11519.242673239612,185.553
11522.620821260369,-251.821
11526.080538823127,68.92
11529.5394224415,262.424
11532.915147579475,577.864
11536.372384051368,-196.156
11539.74650183491,53.015
11543.202092336618,344.598
11546.574603913472,-119.284
11550.028549620163,-60.967
11553.399456136987,137.839
11556.85175822272,-198.806
11560.221060825072,638.831
11563.67172046279,121.935
11567.039420295116,66.269
11570.488438656655,-87.475
11573.854536862347,-349.899
11577.301915118398,193.505
11580.666412839755,-344.598
11584.030120381583,381.708
11587.475050538147,355.201
11590.837159300165,-265.075
11594.280452266124,-503.643
11597.64096338792,-212.06
11601.000685734118,177.6
11604.441534950183,426.771
11607.79966135666,286.281
11611.156999826935,145.791
11614.59540789372,286.281
11617.951152122365,-156.394
11621.306109253032,10.603
11624.66027956261,206.759
11628.09544335218,-68.92
11631.44802167594,71.57
11634.799814015252,119.284
11638.15082064648,-718.354
11641.58274474832,691.846
11644.932161645294,-119.284
11648.280793669244,368.455
11651.62864109602,-530.15
11654.975704201344,-124.585
11658.403590030808,-47.714
11661.749066206958,7.952
11665.093758894744,50.364
11668.43766836938,98.078
11671.780794905935,421.47
11675.12313877933,26.508
11678.4647002644,-26.508
11681.805479635816,392.311
11685.145477168146,55.666
11688.484693135812,-249.171
11691.904543291126,-164.347
11695.24217790648,-227.965
11698.579031786354,686.545
11701.915105204676,127.236
11705.25039843522,190.854
11708.584911751648,-373.756
11711.918645427471,-241.218
11715.251599736104,53.015
11718.502511651865,-10.603
11721.83392703817,607.022
11725.164563870054,296.884
11728.4944224204,249.171
11731.823502961994,-506.294
11735.15180576744,-246.52
11738.479331109273,-220.012
11741.806079259855,665.339
11745.132050491462,-429.422
11748.457245076206,42.412
11751.70058915004,-198.806
11755.024250183047,-209.409
11758.34713537819,-21.206
11761.669245007088,-265.075
11764.990579341233,-333.995
11768.230158619372,-209.409
11771.549962071174,66.269
11774.86899103535,-328.693
11778.187245782876,-233.266
11781.423821624776,-190.854
11784.740547618409,153.744
11788.05650020102,1161.029
11791.371679643096,204.108
11794.605256223578,432.073
11797.91890903626,-357.852
11801.231789512534,291.583
11804.46312397414,357.852
11807.774479408556,694.497
11811.085063309589,-291.583
11814.314157983485,379.058
11817.623218427994,-312.789
11820.850827315822,-336.645
11824.158365355152,140.49
11827.4651331948,397.613
11830.690506166697,-254.472
11833.995753182851,315.439
11837.219642936305,132.538
11840.52337017791,193.505
11843.745777735792,-55.666
11847.047986250807,-787.273
11850.26891263506,797.876
11853.569603470474,344.598
11856.789049702087,121.935
11860.088223903953,-527.5
11863.30619100298,172.299
11866.603849616356,265.075
11869.820338601929,-174.95
11873.11648267094,-172.299
11876.331494561222,-474.485
11879.545777396996,-129.887
11882.839660941268,-55.666
11886.052468201013,254.472
11889.26454715598,68.92
11892.55617250015,-355.201
11895.766777396242,-328.693
11899.056892350098,379.058
11902.26602420178,-177.6
11905.474428998024,262.424
11908.682106985869,116.633
11911.969222890988,705.1
11915.17542984806,74.221
11918.380910743392,-71.57
11921.66577540321,617.625
11924.869786778698,-389.661
11928.07307283808,127.236
11931.27563382762,13.254
11934.477469993468,100.729
11937.758600089848,209.409
11940.95896924119,-307.487
11944.158614312782,-408.216
11947.35753555032,-328.693
11950.55573319941,145.791
11953.753207505528,479.786
11957.029868231695,-63.618
11960.225878519712,490.389
11963.42116620667,-180.251
11966.615731537608,-87.475
11969.809574757444,-227.965
11973.002696111003,-39.761
11976.195095842992,63.618
11979.386774197992,286.281
11982.577731420495,-63.618
11985.767967754866,31.809
11988.957483445382,190.854
11992.146278736183,100.729
11995.334353871312,-365.804
11998.521709094712,204.108
12001.708344650193,-235.917
12004.894260781464,10.603
12008.079457732136,185.553
12011.2639357457,-100.729
12014.44769506553,50.364
12017.630735934905,-302.186
12020.81305859698,31.809
12023.994663294816,-416.168
12027.175550271351,-482.437
12030.27622427429,-739.56
12033.455694464548,145.791
12036.634447655608,283.63
12039.812484089987,-267.726
12042.989804010074,-121.935
12046.166407658158,55.666
12049.26290681064,-315.439
12052.4380965329,63.618
12055.612570703324,63.618
12058.786329563762,-1031.142
12061.880055974125,137.839
12065.052402807443,106.03
12068.224035049663,-180.251
12071.394952942192,315.439
12074.485910333004,320.741
12077.655418093736,10.603
12080.824212222367,111.332
12083.913099633974,108.681
12087.080485047096,135.188
12090.247157544738,-47.714
12093.333977055809,291.583
