Wavenumber (cm⁻¹),Intensity
200.0,2024.337586392866
201.00097751710655,1983.6515122929718
202.0019550342131,1953.1624636396882
203.00293255131965,1915.2399074375853
204.0039100684262,1897.2290181115407
205.00488758553274,1903.8082538645579
206.0058651026393,1888.6841783783193
207.00684261974584,1905.8677761027582
208.0078201368524,1927.4827757467908
209.00879765395894,1949.812951618682
210.00977517106548,1990.5187266311873
211.01075268817203,2011.346164626287
212.01173020527858,2029.383209939895
213.01270772238513,2028.891499838906
214.01368523949168,1997.0606005129634
215.01466275659823,1950.112394449139
216.01564027370478,1888.1192636425085
217.01661779081132,1813.4597285891948
218.01759530791787,1734.6054034499605
219.01857282502445,1662.1126697229017
220.019550342131,1585.2725930143401
221.02052785923755,1519.8610724567066
222.0215053763441,1465.0573107350685
223.02248289345064,1414.3995444555392
224.0234604105572,1364.5885600096349
225.02443792766374,1317.4584309248617
226.0254154447703,1277.2817700945056
227.02639296187684,1246.496717164823
228.02737047898339,1223.6564785083099
229.02834799608993,1194.992996272215
230.02932551319648,1173.2613395980807
231.03030303030303,1155.7262883030678
232.03128054740958,1135.3099770750846
233.03225806451613,1110.710139851858
234.03323558162268,1099.8268405051379
235.03421309872923,1081.5143098500107
236.03519061583577,1058.8034062255733
237.03616813294232,1054.5217746558465
238.03714565004887,1049.4272968438224
239.03812316715542,1028.7945711181717
240.03910068426197,1021.1907745464845
241.04007820136852,1039.2568718406337
242.04105571847506,1020.4656739448201
243.0420332355816,1009.8383506075324
244.0430107526882,997.6204362203435
245.04398826979474,991.4934798093753
246.0449657869013,1010.2288942000924
247.04594330400784,1016.1961903577194
248.04692082111438,1004.7088162657138
249.04789833822093,997.4179957737691
250.04887585532748,1004.2047555396185
251.04985337243403,1007.1566476814231
252.05083088954058,1009.00876045113
253.05180840664713,1013.3637280953341
254.05278592375367,1013.3175346233882
255.05376344086022,1002.6390496528405
256.05474095796677,1004.8197898109099
257.0557184750733,1016.2179078101225
258.05669599217987,1029.2243833517543
259.0576735092864,1041.3399422415332
260.05865102639297,1055.3841708925734
261.0596285434995,1049.675300495977
262.06060606060606,1055.9914723526492
263.0615835777126,1073.0699346908298
264.06256109481916,1085.452328539627
265.0635386119257,1089.4004927746664
266.06451612903226,1095.6529222956017
267.0654936461388,1108.7065403258753
268.06647116324535,1119.659411068754
269.0674486803519,1113.3554848308447
270.06842619745845,1115.9435751880164
271.069403714565,1119.4953568109788
272.07038123167155,1124.6872112422373
273.0713587487781,1131.5215693537336
274.07233626588464,1131.7868543059517
275.0733137829912,1154.9025586032756
276.07429130009774,1182.221289008072
277.0752688172043,1199.300517092559
278.07624633431084,1204.7950185314617
279.0772238514174,1219.5931436593285
280.07820136852393,1228.4922882639348
281.0791788856305,1242.2712420842101
282.08015640273703,1260.6857097915745
283.0811339198436,1267.1900838300498
284.08211143695013,1286.8992504274734
285.0830889540567,1308.305351128565
286.0840664711632,1326.9197449363655
287.0850439882698,1347.2210983277573
288.0860215053764,1374.3066799218475
289.0869990224829,1393.5494745670167
290.0879765395895,1400.510418000792
291.088954056696,1405.0262198156627
292.0899315738026,1420.8229837364358
293.0909090909091,1445.384580490657
294.09188660801567,1465.3412498498863
295.0928641251222,1472.6620382498936
296.09384164222877,1473.7090700314668
297.0948191593353,1484.9034245367745
298.09579667644186,1501.4792496815119
299.0967741935484,1507.1057429592308
300.09775171065496,1507.746725198899
301.0987292277615,1517.8569489888548
302.09970674486806,1545.378481430522
303.1006842619746,1564.4336878612728
304.10166177908116,1580.103932388096
305.1026392961877,1597.4112392386437
306.10361681329425,1618.8935348093216
307.1045943304008,1650.6708367949932
308.10557184750735,1673.3655089135327
309.1065493646139,1694.1430003507792
310.10752688172045,1710.6353226051795
311.108504398827,1712.4011225473112
312.10948191593354,1722.6856985356305
313.1104594330401,1712.0883216905181
314.11143695014664,1687.6726943035749
315.1124144672532,1665.4175203312805
316.11339198435974,1650.996867300785
317.1143695014663,1622.0547468153657
318.11534701857283,1597.1042140831405
319.1163245356794,1580.6083388010213
320.11730205278593,1571.6148205080333
321.1182795698925,1574.553022232482
322.119257086999,1566.916040217702
323.1202346041056,1578.4273118453905
324.1212121212121,1603.7046943674454
325.1221896383187,1622.0999640530804
326.1231671554252,1661.0505500662287
327.12414467253177,1704.1263871428014
328.1251221896383,1763.4232408777739
329.12609970674487,1836.2221506402118
330.1270772238514,1901.7878798065572
331.12805474095796,1991.1303681782395
332.1290322580645,2092.261413941695
333.13000977517106,2197.4525740651197
334.1309872922776,2301.3084287966694
335.13196480938416,2400.319687627015
336.1329423264907,2481.1751368990317
337.13391984359725,2547.0005426799466
338.1348973607038,2589.4799106809714
339.13587487781035,2600.8539933078296
340.1368523949169,2586.476963033186
341.13782991202345,2522.0085365790296
342.13880742913,2430.574259837675
343.13978494623655,2336.4317096818827
344.1407624633431,2249.761196282073
345.14173998044964,2156.3325161639095
346.1427174975562,2070.8347766084494
347.14369501466274,1998.1697944221942
348.1446725317693,1926.4500001565336
349.14565004887584,1849.5816802657334
350.1466275659824,1802.3029069149102
351.14760508308893,1758.2897797650517
352.1485826001955,1711.0634506414697
353.14956011730203,1673.5086509157077
354.1505376344086,1657.0611655726627
355.1515151515151,1643.9907148963187
356.1524926686217,1639.912536113083
357.1534701857282,1642.2032690232104
358.1544477028348,1648.8674727723671
359.1554252199413,1662.6903185154624
360.15640273704787,1693.3199557073824
361.1573802541544,1727.6190666471591
362.15835777126097,1750.3123292413868
363.1593352883675,1766.0095858170184
364.16031280547406,1793.161267129815
365.1612903225806,1800.0641600457675
366.16226783968716,1802.126607763201
367.1632453567937,1807.8707250342309
368.16422287390026,1807.8950189736863
369.1652003910068,1770.8380824431565
370.16617790811335,1759.0941483778533
371.1671554252199,1724.4640632508929
372.16813294232645,1684.9910737055204
373.169110459433,1666.9603380415122
374.17008797653955,1654.7402549713777
375.1710654936461,1646.628056733706
376.1720430107527,1648.5261961440174
377.17302052785925,1657.7090354722527
378.1739980449658,1672.1446653835867
379.17497556207235,1700.2835323470588
380.1759530791789,1727.9074154447703
381.17693059628544,1758.386178384402
382.177908113392,1789.315066559365
383.17888563049854,1818.2239041564858
384.1798631476051,1853.4654219416802
385.18084066471164,1881.2622110897607
386.1818181818182,1895.2848502762536
387.18279569892474,1897.6735397688874
388.1837732160313,1892.2064532015456
389.18475073313783,1876.1752005631517
390.1857282502444,1840.3527947887242
391.18670576735093,1780.749822917131
392.1876832844575,1708.8435821451951
393.188660801564,1633.6706539994952
394.1896383186706,1545.1682151312204
395.1906158357771,1446.4880682619626
396.1915933528837,1347.641816316592
397.1925708699902,1256.9914065078196
398.19354838709677,1177.5647259235484
399.1945259042033,1100.6248861417603
400.19550342130987,1039.0284727924409
401.1964809384164,979.6815921917864
402.19745845552296,925.2980109858573
403.1984359726295,884.3445432326153
404.19941348973606,847.4666409056543
405.2003910068426,811.8013978902089
406.20136852394916,790.1536091202082
407.2023460410557,782.3197732665191
408.20332355816225,777.2531477723682
409.20430107526886,753.8429330025657
410.2052785923754,734.6735090011249
411.20625610948196,713.7963587881945
412.2072336265885,700.8044617049918
413.20821114369505,701.7973124751132
414.2091886608016,688.9821801640667
415.21016617790815,674.0114330748112
416.2111436950147,670.5964065589756
417.21212121212125,667.6474329794519
418.2130987292278,653.9292149232652
419.21407624633434,641.1768398277693
420.2150537634409,631.5988695799957
421.21603128054744,614.2256152241439
422.217008797654,601.7785693190182
423.21798631476054,604.7578175136356
424.2189638318671,609.0351250262627
425.21994134897363,600.0229908830005
426.2209188660802,580.8125484781765
427.22189638318673,569.3434765073707
428.2228739002933,571.908886487762
429.2238514173998,567.7073295803449
430.2248289345064,572.3392822526812
431.2258064516129,570.9665986279283
432.2267839687195,562.5677898554162
433.227761485826,555.6905428390738
434.22873900293257,557.6400533194025
435.2297165200391,561.5567840370098
436.23069403714567,559.0162824342143
437.2316715542522,556.2776627727786
438.23264907135876,558.0446509136166
439.2336265884653,561.8355186232521
440.23460410557186,571.2199842025452
441.2355816226784,567.3863058549846
442.23655913978496,556.3079056114266
443.2375366568915,549.082817576086
444.23851417399806,548.1980643705862
445.2394916911046,547.9398014210597
446.24046920821115,543.6225451296594
447.2414467253177,552.2304738314551
448.24242424242425,562.897027668011
449.2434017595308,549.8839052081528
450.24437927663735,548.598142600605
451.2453567937439,551.7131203377481
452.24633431085044,559.8350145270477
453.247311827957,567.1210351314701
454.24828934506354,567.2517699823999
455.2492668621701,568.9421318125551
456.25024437927664,570.6245405954278
457.2512218963832,571.3231088493071
458.25219941348973,572.6357043305773
459.2531769305963,575.5184063011633
460.25415444770283,577.3233276386375
461.2551319648094,572.0579939128119
462.2561094819159,582.0113933974714
463.2570869990225,584.3651871649839
464.258064516129,570.6782125238373
465.2590420332356,570.9795305370585
466.2600195503421,566.5346516590926
467.26099706744867,568.9818257027994
468.2619745845552,568.4758052680895
469.26295210166177,560.804165497073
470.2639296187683,555.9335176608813
471.26490713587486,555.9578644033729
472.2658846529814,560.3259538847333
473.26686217008796,559.1291390309747
474.2678396871945,553.1502738811565
475.26881720430106,552.5726071896474
476.2697947214076,564.5386648588378
477.27077223851416,569.828923700857
478.2717497556207,570.8074982413208
479.27272727272725,577.1967223529633
480.2737047898338,593.7591265182019
481.27468230694035,613.1892332576414
482.2756598240469,622.3513272507073
483.27663734115345,639.3784805705845
484.27761485826,657.8958977792452
485.27859237536654,672.113071258624
486.2795698924731,690.1337899191034
487.28054740957964,719.6525036623324
488.2815249266862,748.0228231225154
489.2825024437928,775.4188760974874
490.28347996089934,804.5323143921712
491.2844574780059,839.0085270011847
492.28543499511244,884.7577770257544
493.286412512219,926.7839851070689
494.28739002932554,974.4802389063587
495.2883675464321,1026.6416952512886
496.28934506353863,1074.579363377641
497.2903225806452,1115.4981847513416
498.29130009775173,1129.409490631266
499.2922776148583,1122.693048409907
500.2932551319648,1101.8141844240827
501.2942326490714,1067.0577276620309
502.2952101661779,1014.9722880445058
503.2961876832845,965.1374733499146
504.297165200391,910.9459927502534
505.29814271749757,861.7117587474804
506.2991202346041,824.5590502411548
507.30009775171067,796.7660100468316
508.3010752688172,768.5786254959818
509.30205278592376,755.7652189247797
510.3030303030303,743.8704936879684
511.30400782013686,729.2714111403087
512.3049853372434,721.7230099032764
513.3059628543499,731.6681046599439
514.3069403714564,737.8065509187057
515.307917888563,750.6076733833098
516.3088954056695,752.7696132499902
517.3098729227761,755.330862494
518.3108504398826,790.6314899686172
519.3118279569892,825.304756520865
520.3128054740957,849.502655717419
521.3137829912023,865.2915406492
522.3147605083088,898.6244683491617
523.3157380254154,955.5349855602991
524.3167155425219,987.6979019265032
525.3176930596285,1050.400658047404
526.318670576735,1107.8528872479312
527.3196480938416,1166.3321418439937
528.3206256109481,1229.858049027114
529.3216031280547,1280.9688178109627
530.3225806451612,1343.6989023158053
531.3235581622678,1399.997555856452
532.3245356793743,1464.2837517301157
533.3255131964809,1538.93813057791
534.3264907135874,1617.5430220658068
535.327468230694,1706.6988948995684
536.3284457478005,1821.993707131121
537.3294232649071,1919.8370453836733
538.3304007820136,2038.0926013187966
539.3313782991202,2181.2130839387196
540.3323558162267,2291.3144283534234
541.3333333333333,2378.8780638871544
542.3343108504398,2447.9534909827953
543.3352883675464,2489.473081470098
544.3362658846529,2507.7260836534433
545.3372434017595,2504.1151834261614
546.338220918866,2462.514598274132
547.3391984359725,2403.429247557379
548.3401759530791,2352.934429326247
549.3411534701856,2297.135083519019
550.3421309872922,2238.197780672215
551.3431085043987,2195.9083819736315
552.3440860215054,2141.593623187532
553.345063538612,2098.295922784664
554.3460410557185,2068.692488181288
555.347018572825,2039.6913274501837
556.3479960899316,2007.768981993895
557.3489736070381,1991.6187641914862
558.3499511241447,1978.6921865701192
559.3509286412512,1959.0468850879054
560.3519061583578,1933.5733541008574
561.3528836754643,1902.740245923109
562.3538611925709,1863.4611096526423
563.3548387096774,1810.7051201999318
564.355816226784,1765.5295656202718
565.3567937438905,1715.987476789495
566.3577712609971,1658.2864346721124
567.3587487781036,1599.917328492586
568.3597262952102,1548.8194606842299
569.3607038123167,1474.427645164331
570.3616813294233,1420.804233244381
571.3626588465298,1376.8132857038013
572.3636363636364,1329.2682722181348
573.3646138807429,1283.1525878042917
574.3655913978495,1247.977228054215
575.366568914956,1203.1595383211659
576.3675464320626,1157.8081949446062
577.3685239491691,1119.4898973161064
578.3695014662757,1086.6990833432192
579.3704789833822,1054.9620142466895
580.3714565004888,1027.4463180026785
581.3724340175953,985.4281718405737
582.3734115347019,962.0069775512114
583.3743890518084,938.334654990205
584.375366568915,899.3690500230855
585.3763440860215,866.4115885683827
586.377321603128,838.1538532265265
587.3782991202346,798.38503753392
588.3792766373411,770.2085452449701
589.3802541544477,748.4223635448769
590.3812316715542,723.0777142797789
591.3822091886608,706.7233131224315
592.3831867057673,678.3688949778606
593.3841642228739,650.8844238368615
594.3851417399804,622.4077594859803
595.386119257087,592.378150409042
596.3870967741935,565.2641225384991
597.3880742913001,542.4660711250257
598.3890518084066,516.0945737975127
599.3900293255132,498.2114933379632
600.3910068426197,476.55868071367547
601.3919843597263,459.19061364740406
602.3929618768328,457.2889195155757
603.3939393939394,422.87326685649293
604.3949169110459,421.5088418334741
605.3958944281525,415.11303408006614
606.396871945259,397.6063273321568
607.3978494623656,383.4301777635033
608.3988269794721,380.9416571515382
609.3998044965787,376.36817212081064
610.4007820136852,373.3986597861507
611.4017595307918,369.8863201396505
612.4027370478983,364.35280170154084
613.4037145650049,356.63347298159766
614.4046920821114,348.3669585954901
615.405669599218,347.12825497745996
616.4066471163245,341.22005638043345
617.4076246334312,331.92042891948074
618.4086021505377,329.5331945672274
619.4095796676443,335.6187442370685
620.4105571847508,335.2818216412063
621.4115347018574,329.90912670695946
622.4125122189639,333.10296500687457
623.4134897360705,328.66653813715675
624.414467253177,322.11200639861096
625.4154447702836,326.81492862148673
626.4164222873901,335.2267639343637
627.4173998044967,331.2416901985303
628.4183773216032,334.00778944022096
629.4193548387098,328.7893049982929
630.4203323558163,325.45562210003794
631.4213098729228,333.9349801062501
632.4222873900294,329.5155398146305
633.423264907136,327.8697888562644
634.4242424242425,327.32669495640914
635.425219941349,326.24816125473774
636.4261974584556,326.5121653972531
637.4271749755621,329.0347109740236
638.4281524926687,330.9690036700995
639.4291300097752,338.76977519111904
640.4301075268818,343.5170696025231
641.4310850439883,348.52186395060494
642.4320625610949,353.15482841186633
643.4330400782014,353.7908628438874
644.434017595308,352.3969545217313
645.4349951124145,351.1928881468247
646.4359726295211,355.1031360847574
647.4369501466276,361.44309004161323
648.4379276637342,362.357388623663
649.4389051808407,359.17558856692324
650.4398826979473,368.7823290019049
651.4408602150538,368.26367506411026
652.4418377321604,370.38849223483214
653.4428152492669,372.7951039568457
654.4437927663735,373.8370265045391
655.44477028348,382.2667004572091
656.4457478005866,405.34965099093
657.4467253176931,394.38172157616594
658.4477028347997,402.5182104522352
659.4486803519062,414.2725357073557
660.4496578690128,422.3265595193563
661.4506353861193,429.8099374388243
662.4516129032259,437.35369563201357
663.4525904203324,450.26919693283565
664.453567937439,466.6479893703085
665.4545454545455,488.8651322679201
666.455522971652,513.516650862867
667.4565004887586,536.6183840240144
668.4574780058651,558.5220366724044
669.4584555229717,580.085893332729
670.4594330400782,606.0978424772238
671.4604105571848,642.7556738265877
672.4613880742913,678.3357066009271
673.4623655913979,701.9283570318477
674.4633431085044,715.9006134989802
675.464320625611,728.6574625684553
676.4652981427175,737.3032576990777
677.4662756598241,727.3917616682938
678.4672531769306,706.3167310143197
679.4682306940372,680.6842507608949
680.4692082111437,645.7700941717497
681.4701857282503,601.4945326382008
682.4711632453568,567.0044958861537
683.4721407624634,535.556703227267
684.4731182795699,503.70155054610757
685.4740957966765,475.17082783953157
686.475073313783,452.94010235820707
687.4760508308896,433.0014254052665
688.4770283479961,407.5424585100938
689.4780058651027,390.75123933755117
690.4789833822092,383.5950838130183
691.4799608993158,383.2322533078879
692.4809384164223,380.9861173856312
693.4819159335289,367.4702560793917
694.4828934506354,357.12269705569054
695.483870967742,353.198621550207
696.4848484848485,354.6801188418097
697.485826001955,351.197618996922
698.4868035190616,344.5837735224257
699.4877810361681,346.42088737650454
700.4887585532747,331.0723675795027
701.4897360703812,334.990755370292
702.4907135874878,338.36638011070005
703.4916911045943,333.00696825658684
704.4926686217009,328.1055039906665
705.4936461388074,330.14541487379154
706.494623655914,332.7537515292638
707.4956011730205,332.3221074419649
708.4965786901271,327.7192958824854
709.4975562072336,329.0131741933254
710.4985337243402,331.4373038010025
711.4995112414467,331.1253962681634
712.5004887585533,340.1485379542256
713.5014662756598,338.16402198531466
714.5024437927664,331.7217879187034
715.5034213098729,325.6160905353796
716.5043988269795,325.69299329990196
717.505376344086,330.75101759587557
718.5063538611926,332.7997177666421
719.5073313782991,333.1505112701579
720.5083088954057,329.38972604436407
721.5092864125122,339.64607127107416
722.5102639296188,339.093244385603
723.5112414467253,333.3056120180275
724.5122189638319,341.00803732501356
725.5131964809384,335.42639782160296
726.514173998045,321.91435872831937
727.5151515151515,327.9846499538005
728.516129032258,336.5853343758154
729.5171065493646,336.0888915904939
730.5180840664711,334.5557083715286
731.5190615835777,340.77954805351203
732.5200391006842,345.6860434093225
733.5210166177908,349.085282519638
734.5219941348973,350.0149732506428
735.5229716520039,350.6773700574811
736.5239491691104,346.33069267908445
737.524926686217,337.04110394082096
738.5259042033235,339.47032554170505
739.5268817204301,332.9409496597547
740.5278592375366,343.73847861244406
741.5288367546432,354.7137710265225
742.5298142717497,360.11679934227936
743.5307917888563,361.8191719377585
744.5317693059628,360.1046871444841
745.5327468230694,366.3920063890197
