Raman Shift,Intensity
209.0,0.556
210.0,1.325
211.0,2.609
212.0,3.971
213.0,4.325
214.0,4.118
215.0,3.845
216.0,3.294
217.0,2.774
218.0,2.281
219.0,1.81
220.0,1.361
221.0,0.929
222.0,0.568
223.0,0.588
224.0,0.62
225.0,0.662
226.0,0.715
227.0,0.941
228.0,1.437
229.0,1.93
230.0,1.6
231.0,1.277
232.0,2.049
233.0,3.427
234.0,4.462
235.0,4.584
236.0,4.709
237.0,6.373
238.0,8.195
239.0,9.563
240.0,10.546
241.0,11.756
242.0,14.014
243.0,16.273
244.0,18.881
245.0,21.572
246.0,23.888
247.0,25.749
248.0,27.775
249.0,31.346
250.0,34.917
251.0,39.109
252.0,43.538
253.0,48.125
254.0,52.979
255.0,57.855
256.0,64.409
257.0,70.963
258.0,78.633
259.0,86.886
260.0,95.525
261.0,105.053
262.0,114.581
263.0,128.14
264.0,141.92
265.0,157.474
266.0,174.235
267.0,192.861
268.0,217.296
269.0,241.731
270.0,276.439
271.0,312.379
272.0,357.595
273.0,410.587
274.0,469.095
275.0,550.23
276.0,631.365
277.0,739.35
278.0,852.112
279.0,968.097
280.0,1087.255
281.0,1196.591
282.0,1253.965
283.0,1311.359
284.0,1276.18
285.0,1220.093
286.0,1129.771
287.0,1001.469
288.0,874.266
289.0,754.263
290.0,634.062
291.0,541.488
292.0,456.12
293.0,384.789
294.0,330.194
295.0,278.103
296.0,244.621
297.0,211.184
298.0,185.963
299.0,163.015
300.0,143.505
301.0,128.242
302.0,113.521
303.0,102.972
304.0,92.423
305.0,83.88
306.0,75.896
307.0,68.877
308.0,63.035
309.0,57.4
310.0,53.271
311.0,49.142
312.0,46.036
313.0,43.196
314.0,40.143
315.0,36.844
316.0,33.775
317.0,32.207
318.0,30.642
319.0,28.731
320.0,26.742
321.0,24.755
322.0,22.77
323.0,20.786
324.0,18.803
325.0,16.822
326.0,15.571
327.0,14.453
328.0,13.337
329.0,12.221
330.0,11.017
331.0,9.471
332.0,7.926
333.0,7.148
334.0,6.467
335.0,6.034
336.0,5.785
337.0,5.315
338.0,4.204
339.0,3.092
340.0,2.795
341.0,2.548
342.0,2.029
343.0,1.349
344.0,0.945
345.0,1.131
346.0,1.317
347.0,1.503
348.0,1.689
349.0,1.574
350.0,1.327
351.0,1.249
352.0,1.436
353.0,1.586
354.0,1.339
355.0,1.092
356.0,1.518
357.0,2.138
358.0,1.94
359.0,0.823
360.0,0.149
361.0,0.398
362.0,0.647
363.0,0.522
364.0,0.338
365.0,0.4
366.0,0.651
367.0,0.789
368.0,0.607
369.0,0.425
370.0,1.085
371.0,1.775
372.0,1.594
373.0,0.979
374.0,0.204
375.0,0.845
376.0,1.761
377.0,1.067
378.0,0.372
379.0,0.358
380.0,0.535
381.0,0.711
382.0,0.887
383.0,0.89
384.0,0.192
385.0,0.506
386.0,0.808
387.0,1.071
388.0,0.795
389.0,0.185
390.0,0.28
391.0,0.451
392.0,0.641
393.0,1.249
394.0,1.855
395.0,1.797
396.0,1.526
397.0,1.668
398.0,2.27
399.0,2.872
400.0,3.474
401.0,4.075
402.0,4.278
403.0,4.441
404.0,5.703
405.0,7.618
406.0,9.686
407.0,12.039
408.0,14.635
409.0,20.503
410.0,26.371
411.0,34.677
412.0,43.624
413.0,52.35
414.0,60.867
415.0,66.949
416.0,65.359
417.0,63.773
418.0,55.384
419.0,46.76
420.0,38.434
421.0,30.249
422.0,23.575
423.0,18.931
424.0,14.684
425.0,12.685
426.0,10.71
427.0,9.526
428.0,8.436
429.0,7.338
430.0,6.232
431.0,5.426
432.0,5.186
433.0,4.938
434.0,4.683
435.0,4.42
436.0,4.514
437.0,4.684
438.0,4.855
439.0,5.045
440.0,5.125
441.0,4.885
442.0,4.653
443.0,4.82
444.0,4.98
445.0,4.455
446.0,3.732
447.0,3.92
448.0,4.96
449.0,5.767
450.0,5.919
451.0,6.072
452.0,6.223
453.0,6.374
454.0,6.192
455.0,5.897
456.0,6.259
457.0,7.294
458.0,8.327
459.0,9.357
460.0,10.387
461.0,12.297
462.0,14.215
463.0,15.804
464.0,17.277
465.0,17.876
466.0,17.57
467.0,17.046
468.0,15.834
469.0,14.605
470.0,13.357
471.0,12.117
472.0,11.221
473.0,10.431
474.0,9.847
475.0,9.472
476.0,9.343
477.0,9.882
478.0,10.364
479.0,10.36
480.0,10.368
481.0,11.464
482.0,12.905
483.0,14.858
484.0,17.221
485.0,19.856
486.0,23.11
487.0,26.514
488.0,32.005
489.0,37.496
490.0,43.733
491.0,50.121
492.0,55.701
493.0,60.691
494.0,63.877
495.0,63.901
496.0,63.303
497.0,58.458
498.0,53.642
499.0,46.813
500.0,39.756
501.0,33.298
502.0,27.138
503.0,22.158
504.0,18.685
505.0,15.593
506.0,13.916
507.0,12.239
508.0,10.116
509.0,7.987
510.0,6.882
511.0,6.101
512.0,5.318
513.0,4.535
514.0,3.891
515.0,3.556
516.0,3.262
517.0,3.376
518.0,3.491
519.0,2.821
520.0,2.033
521.0,1.537
522.0,1.199
523.0,0.86
524.0,0.52
525.0,0.277
526.0,0.387
527.0,0.496
528.0,0.155
529.0,0.188
530.0,0.179
531.0,0.072
532.0,0.224
533.0,0.569
534.0,0.754
535.0,0.649
536.0,0.544
537.0,0.44
538.0,0.334
539.0,0.23
540.0,0.126
541.0,0.024
542.0,0.077
543.0,0.178
544.0,0.277
545.0,0.234
546.0,0.121
547.0,0.43
548.0,0.334
549.0,0.239
550.0,0.267
551.0,0.818
552.0,0.729
553.0,0.364
554.0,0.677
555.0,1.675
556.0,2.268
557.0,1.902
558.0,1.578
559.0,1.665
560.0,1.752
561.0,1.838
562.0,1.924
563.0,2.009
564.0,2.094
565.0,2.408
566.0,2.947
567.0,3.346
568.0,3.429
569.0,3.512
570.0,3.594
571.0,3.676
572.0,3.758
573.0,3.839
574.0,3.92
575.0,4.001
576.0,4.081
577.0,4.161
578.0,4.401
579.0,4.938
580.0,5.326
581.0,4.948
582.0,4.57
583.0,4.638
584.0,4.717
585.0,4.796
586.0,4.875
587.0,4.954
588.0,5.034
589.0,5.113
590.0,5.193
591.0,5.272
592.0,5.351
593.0,5.456
594.0,5.993
595.0,6.529
596.0,6.259
597.0,5.877
598.0,6.459
599.0,7.455
600.0,7.969
601.0,8.045
602.0,8.281
603.0,8.817
604.0,9.274
605.0,9.351
606.0,9.427
607.0,10.879
608.0,12.335
609.0,13.412
610.0,14.408
611.0,16.305
612.0,18.682
613.0,20.617
614.0,22.074
615.0,23.818
616.0,26.196
617.0,28.509
618.0,30.427
619.0,32.345
620.0,32.912
621.0,33.445
622.0,31.734
623.0,29.495
624.0,26.958
625.0,24.256
626.0,21.552
627.0,18.845
628.0,16.281
629.0,14.03
630.0,11.85
631.0,10.056
632.0,8.259
633.0,6.917
634.0,5.58
635.0,4.634
636.0,3.755
637.0,3.169
638.0,2.731
639.0,2.3
640.0,1.858
641.0,1.57
642.0,1.583
643.0,1.482
644.0,1.016
645.0,0.587
646.0,0.615
647.0,0.653
648.0,0.695
649.0,0.743
650.0,0.795
651.0,0.849
652.0,0.904
653.0,0.957
654.0,0.989
655.0,1.004
656.0,0.904
657.0,0.509
658.0,0.367
659.0,1.391
660.0,2.376
661.0,2.893
662.0,3.413
663.0,3.939
664.0,4.465
665.0,7.034
666.0,10.357
667.0,14.51
668.0,19.239
669.0,23.756
670.0,28.017
671.0,30.547
672.0,29.2
673.0,27.293
674.0,22.673
675.0,18.101
676.0,14.886
677.0,11.671
678.0,8.872
679.0,6.122
680.0,4.798
681.0,3.919
682.0,3.335
683.0,2.924
684.0,2.746
685.0,2.804
686.0,2.861
687.0,2.919
688.0,2.866
689.0,2.453
690.0,2.139
691.0,2.666
692.0,3.193
693.0,3.719
694.0,4.246
695.0,4.374
696.0,4.43
697.0,5.168
698.0,6.166
699.0,7.165
700.0,8.168
701.0,10.292
702.0,13.649
703.0,18.172
704.0,24.826
705.0,33.122
706.0,46.857
707.0,62.601
708.0,94.275
709.0,125.949
710.0,184.391
711.0,243.022
712.0,278.479
713.0,310.654
714.0,294.409
715.0,262.788
716.0,220.814
717.0,173.116
718.0,131.653
719.0,95.742
720.0,66.717
721.0,47.36
722.0,31.454
723.0,23.453
724.0,16.367
725.0,13.104
726.0,9.919
727.0,7.602
728.0,5.282
729.0,5.274
730.0,5.327
731.0,4.56
732.0,3.666
733.0,3.131
734.0,2.708
735.0,2.285
736.0,1.861
737.0,1.437
738.0,1.014
739.0,0.807
740.0,0.861
741.0,0.747
742.0,0.323
743.0,0.018
744.0,0.073
745.0,0.128
746.0,0.182
747.0,0.214
748.0,0.208
749.0,0.629
750.0,0.144
751.0,0.383
752.0,0.091
753.0,0.339
754.0,0.404
755.0,0.351
756.0,0.298
757.0,0.248
758.0,0.198
759.0,0.149
760.0,0.099
761.0,0.05
762.0,0.188
763.0,0.616
764.0,0.901
765.0,0.851
766.0,0.699
767.0,0.168
768.0,0.301
769.0,0.351
770.0,0.421
771.0,0.951
772.0,1.48
773.0,1.092
774.0,0.661
775.0,1.07
776.0,1.604
777.0,1.376
778.0,0.944
779.0,1.193
780.0,1.721
781.0,1.645
782.0,1.211
783.0,1.044
784.0,1.097
785.0,1.15
786.0,1.203
787.0,1.256
788.0,1.309
789.0,1.363
790.0,1.416
791.0,1.469
792.0,1.522
793.0,1.569
794.0,1.613
795.0,1.657
796.0,1.7
797.0,1.745
798.0,1.797
799.0,1.853
800.0,1.909
801.0,1.994
802.0,2.115
803.0,2.183
804.0,2.225
805.0,2.268
806.0,1.594
807.0,0.67
808.0,0.742
809.0,1.269
810.0,1.512
811.0,1.558
812.0,1.597
813.0,1.635
814.0,1.673
815.0,1.71
816.0,1.535
817.0,1.093
818.0,1.049
819.0,1.573
820.0,1.781
821.0,1.328
822.0,1.003
823.0,1.039
824.0,1.076
825.0,1.127
826.0,1.213
827.0,1.275
828.0,1.361
829.0,1.887
830.0,2.372
831.0,1.918
832.0,1.462
833.0,1.49
834.0,1.529
835.0,2.03
836.0,2.56
837.0,1.788
838.0,0.856
839.0,1.148
840.0,1.67
841.0,1.804
842.0,1.838
843.0,1.872
844.0,1.906
845.0,1.596
846.0,1.139
847.0,1.324
848.0,1.844
849.0,1.769
850.0,1.328
851.0,1.155
852.0,1.181
853.0,1.218
854.0,1.273
855.0,1.071
856.0,0.601
857.0,0.773
858.0,1.768
859.0,2.155
860.0,1.682
861.0,1.2
862.0,0.724
863.0,0.579
864.0,1.075
865.0,1.421
866.0,1.429
867.0,1.433
868.0,1.438
869.0,1.443
870.0,1.445
871.0,1.316
872.0,0.78
873.0,0.43
874.0,0.893
875.0,1.305
876.0,1.308
877.0,1.311
878.0,1.314
879.0,1.318
880.0,1.323
881.0,1.287
882.0,0.794
883.0,0.357
884.0,0.854
885.0,1.333
886.0,1.332
887.0,1.332
888.0,1.332
889.0,1.33
890.0,0.837
891.0,0.338
892.0,0.319
893.0,0.313
894.0,0.307
895.0,0.301
896.0,0.294
897.0,0.286
898.0,0.277
899.0,0.268
900.0,0.707
901.0,1.193
902.0,1.237
903.0,1.224
904.0,0.775
905.0,0.265
906.0,0.183
907.0,0.168
908.0,0.274
909.0,0.789
910.0,0.042
911.0,0.934
912.0,0.657
913.0,0.137
914.0,0.443
915.0,0.913
916.0,0.561
917.0,0.035
918.0,0.328
919.0,0.799
920.0,0.862
921.0,0.833
922.0,0.804
923.0,0.774
924.0,0.336
925.0,0.199
926.0,0.482
927.0,1.447
928.0,1.195
929.0,0.657
930.0,0.57
931.0,0.59
932.0,0.171
933.0,0.319
934.0,0.056
935.0,0.603
936.0,0.708
937.0,0.757
938.0,1.266
939.0,1.84
940.0,1.541
941.0,1.118
942.0,1.163
943.0,1.259
944.0,1.331
945.0,1.447
946.0,2.022
947.0,2.6
948.0,2.697
949.0,2.778
950.0,2.87
951.0,2.898
952.0,2.879
953.0,2.836
954.0,2.773
955.0,2.71
956.0,2.176
957.0,1.609
958.0,2.0
959.0,2.436
960.0,1.891
961.0,1.316
962.0,1.741
963.0,2.173
964.0,2.602
965.0,3.013
966.0,2.941
967.0,2.841
968.0,2.26
969.0,1.757
970.0,2.182
971.0,2.552
972.0,2.471
973.0,2.523
974.0,3.456
975.0,4.147
976.0,3.557
977.0,3.156
978.0,3.579
979.0,4.001
980.0,4.421
981.0,4.838
982.0,5.257
983.0,5.678
984.0,6.098
985.0,6.517
986.0,6.936
987.0,7.88
988.0,9.825
989.0,11.381
990.0,12.304
991.0,13.011
992.0,13.424
993.0,14.531
994.0,16.474
995.0,18.918
996.0,21.882
997.0,26.47
998.0,32.491
999.0,42.01
1000.0,54.16
1001.0,75.388
1002.0,102.348
1003.0,151.091
1004.0,211.305
1005.0,293.709
1006.0,385.669
1007.0,436.158
1008.0,472.384
1009.0,432.986
1010.0,373.483
1011.0,295.514
1012.0,213.947
1013.0,158.168
1014.0,105.737
1015.0,79.197
1016.0,54.426
1017.0,43.757
1018.0,33.502
1019.0,27.224
1020.0,21.218
1021.0,18.004
1022.0,14.873
1023.0,12.187
1024.0,9.903
1025.0,9.248
1026.0,8.478
1027.0,7.329
1028.0,6.18
1029.0,5.03
1030.0,4.069
1031.0,3.432
1032.0,2.788
1033.0,2.111
1034.0,1.721
1035.0,1.601
1036.0,0.913
1037.0,0.243
1038.0,0.456
1039.0,0.068
1040.0,0.394
1041.0,1.091
1042.0,1.001
1043.0,0.621
1044.0,1.074
1045.0,1.73
1046.0,1.48
1047.0,1.096
1048.0,1.688
1049.0,2.342
1050.0,1.973
1051.0,1.688
1052.0,2.36
1053.0,2.8
1054.0,1.912
1055.0,1.37
1056.0,2.039
1057.0,2.248
1058.0,1.362
1059.0,0.671
1060.0,0.307
1061.0,0.753
1062.0,2.676
1063.0,5.416
1064.0,8.894
1065.0,12.044
1066.0,14.998
1067.0,16.548
1068.0,17.419
1069.0,16.69
1070.0,15.474
1071.0,16.458
1072.0,17.866
1073.0,22.164
1074.0,26.741
1075.0,37.545
1076.0,49.614
1077.0,74.51
1078.0,107.288
1079.0,177.175
1080.0,276.667
1081.0,459.566
1082.0,714.039
1083.0,1101.443
1084.0,1501.632
1085.0,1918.225
1086.0,2103.458
1087.0,2081.83
1088.0,1827.895
1089.0,1430.985
1090.0,1051.099
1091.0,678.133
1092.0,445.874
1093.0,247.928
1094.0,159.713
1095.0,83.969
1096.0,59.812
1097.0,37.34
1098.0,28.257
1099.0,20.157
1100.0,16.328
1101.0,12.947
1102.0,10.694
1103.0,8.643
1104.0,6.915
1105.0,5.955
1106.0,5.808
1107.0,5.042
1108.0,3.841
1109.0,3.731
1110.0,4.112
1111.0,5.332
1112.0,6.77
1113.0,6.785
1114.0,6.645
1115.0,7.558
1116.0,8.352
1117.0,8.208
1118.0,8.299
1119.0,9.214
1120.0,9.954
1121.0,10.342
1122.0,10.962
1123.0,11.881
1124.0,13.093
1125.0,14.543
1126.0,17.051
1127.0,20.092
1128.0,24.374
1129.0,29.011
1130.0,36.021
1131.0,43.326
1132.0,51.686
1133.0,59.513
1134.0,63.629
1135.0,66.189
1136.0,63.929
1137.0,60.51
1138.0,55.058
1139.0,49.605
1140.0,44.151
1141.0,39.339
1142.0,34.946
1143.0,31.716
1144.0,28.923
1145.0,25.629
1146.0,22.241
1147.0,20.442
1148.0,18.662
1149.0,16.837
1150.0,15.505
1151.0,15.853
1152.0,15.792
1153.0,14.999
1154.0,14.484
1155.0,14.274
1156.0,14.354
1157.0,14.598
1158.0,14.072
1159.0,13.296
1160.0,13.885
1161.0,14.623
1162.0,13.303
1163.0,12.257
1164.0,12.543
1165.0,12.518
1166.0,11.785
1167.0,11.322
1168.0,11.194
1169.0,10.79
1170.0,10.146
1171.0,10.247
1172.0,10.681
1173.0,10.222
1174.0,9.584
1175.0,9.47
1176.0,9.374
1177.0,9.278
1178.0,8.907
1179.0,7.738
1180.0,7.001
1181.0,6.911
1182.0,6.823
1183.0,6.736
1184.0,7.024
1185.0,7.48
1186.0,7.485
1187.0,7.404
1188.0,7.325
1189.0,7.321
1190.0,7.785
1191.0,7.784
1192.0,6.628
1193.0,6.661
1194.0,8.212
1195.0,8.805
1196.0,8.736
1197.0,8.263
1198.0,7.654
1199.0,8.507
1200.0,9.496
1201.0,9.974
1202.0,10.337
1203.0,10.274
1204.0,10.413
1205.0,10.896
1206.0,10.804
1207.0,10.201
1208.0,10.349
1209.0,10.836
1210.0,10.861
1211.0,10.799
1212.0,10.2
1213.0,9.698
1214.0,9.646
1215.0,9.595
1216.0,9.545
1217.0,9.495
1218.0,9.447
1219.0,9.766
1220.0,10.266
1221.0,9.849
1222.0,9.263
1223.0,9.22
1224.0,9.08
1225.0,8.492
1226.0,8.095
1227.0,8.056
1228.0,8.017
1229.0,7.98
1230.0,7.943
1231.0,7.907
1232.0,7.397
1233.0,6.815
1234.0,6.234
1235.0,5.653
1236.0,5.073
1237.0,5.146
1238.0,6.214
1239.0,6.653
1240.0,6.625
1241.0,6.598
1242.0,6.572
1243.0,6.546
1244.0,6.585
1245.0,7.111
1246.0,7.474
1247.0,7.452
1248.0,7.696
1249.0,8.226
1250.0,8.389
1251.0,8.37
1252.0,8.821
1253.0,9.355
1254.0,9.89
1255.0,10.427
1256.0,10.964
1257.0,11.503
1258.0,12.043
1259.0,12.249
1260.0,12.239
1261.0,12.671
1262.0,13.217
1263.0,14.311
1264.0,15.211
1265.0,15.21
1266.0,15.207
1267.0,15.206
1268.0,15.526
1269.0,16.086
1270.0,15.795
1271.0,15.249
1272.0,15.241
1273.0,15.379
1274.0,16.036
1275.0,16.777
1276.0,17.516
1277.0,17.863
1278.0,17.956
1279.0,18.057
1280.0,18.201
1281.0,18.376
1282.0,18.554
1283.0,18.711
1284.0,18.621
1285.0,18.184
1286.0,17.744
1287.0,17.264
1288.0,16.795
1289.0,16.407
1290.0,15.988
1291.0,15.606
1292.0,15.742
1293.0,15.227
1294.0,13.699
1295.0,12.834
1296.0,12.345
1297.0,11.88
1298.0,11.481
1299.0,11.571
1300.0,11.329
1301.0,10.253
1302.0,9.713
1303.0,9.743
1304.0,8.991
1305.0,7.913
1306.0,7.343
1307.0,6.891
1308.0,6.921
1309.0,6.954
1310.0,6.991
1311.0,7.351
1312.0,7.946
1313.0,7.637
1314.0,7.091
1315.0,5.997
1316.0,5.043
1317.0,4.513
1318.0,4.785
1319.0,5.946
1320.0,6.319
1321.0,6.354
1322.0,6.913
1323.0,7.337
1324.0,6.809
1325.0,6.281
1326.0,5.754
1327.0,5.922
1328.0,6.526
1329.0,6.173
1330.0,5.736
1331.0,6.342
1332.0,6.772
1333.0,6.813
1334.0,6.543
1335.0,6.013
1336.0,6.37
1337.0,6.949
1338.0,6.414
1339.0,6.022
1340.0,6.05
1341.0,6.359
1342.0,6.951
1343.0,7.123
1344.0,7.143
1345.0,7.161
1346.0,7.052
1347.0,6.497
1348.0,6.204
1349.0,6.217
1350.0,5.828
1351.0,5.27
1352.0,5.797
1353.0,6.152
1354.0,5.592
1355.0,5.285
1356.0,5.295
1357.0,5.303
1358.0,5.311
1359.0,4.779
1360.0,4.214
1361.0,3.647
1362.0,3.079
1363.0,2.51
1364.0,2.737
1365.0,3.31
1366.0,2.792
1367.0,2.335
1368.0,2.332
1369.0,2.064
1370.0,1.485
1371.0,0.905
1372.0,0.325
1373.0,0.864
1374.0,1.16
1375.0,0.576
1376.0,0.275
1377.0,0.264
1378.0,0.252
1379.0,0.229
1380.0,0.361
1381.0,1.113
1382.0,2.283
1383.0,2.197
1384.0,1.064
1385.0,0.866
1386.0,0.932
1387.0,1.532
1388.0,1.936
1389.0,1.961
1390.0,1.635
1391.0,1.084
1392.0,1.043
1393.0,0.983
1394.0,0.352
1395.0,0.456
1396.0,1.563
1397.0,1.063
1398.0,0.142
1399.0,0.9
1400.0,1.594
1401.0,0.972
1402.0,0.349
1403.0,0.273
1404.0,0.029
1405.0,0.483
1406.0,0.139
1407.0,0.762
1408.0,1.384
1409.0,2.007
1410.0,2.63
1411.0,2.19
1412.0,1.875
1413.0,2.498
1414.0,3.121
1415.0,3.743
1416.0,3.477
1417.0,2.987
1418.0,3.609
1419.0,4.231
1420.0,4.852
1421.0,5.836
1422.0,7.042
1423.0,7.187
1424.0,7.341
1425.0,7.964
1426.0,8.873
1427.0,10.082
1428.0,11.749
1429.0,13.63
1430.0,16.599
1431.0,20.639
1432.0,26.543
1433.0,33.224
1434.0,40.309
1435.0,44.595
1436.0,47.418
1437.0,46.286
1438.0,42.249
1439.0,35.817
1440.0,30.378
1441.0,25.155
1442.0,21.027
1443.0,17.198
1444.0,13.275
1445.0,11.34
1446.0,10.239
1447.0,8.646
1448.0,7.397
1449.0,6.221
1450.0,5.268
1451.0,3.998
1452.0,4.764
1453.0,4.992
1454.0,4.082
1455.0,4.019
1456.0,4.478
1457.0,4.903
1458.0,5.009
1459.0,3.675
1460.0,3.258
1461.0,3.713
1462.0,4.158
1463.0,4.51
1464.0,4.339
1465.0,4.156
1466.0,3.958
1467.0,3.745
1468.0,3.515
1469.0,3.267
1470.0,2.998
1471.0,2.712
1472.0,2.436
1473.0,2.171
1474.0,1.924
1475.0,1.903
1476.0,2.285
1477.0,2.283
1478.0,2.103
1479.0,1.92
1480.0,1.927
1481.0,2.33
1482.0,2.338
1483.0,2.134
1484.0,1.928
1485.0,1.907
1486.0,2.311
1487.0,1.593
1488.0,0.224
1489.0,0.012
1490.0,0.023
1491.0,0.462
1492.0,0.537
1493.0,0.398
1494.0,0.273
1495.0,0.335
1496.0,0.844
1497.0,1.009
1498.0,0.984
1499.0,0.448
1500.0,0.0
