Raman shift,Intensity
763.76372,3279.71452
765.31805,3281.07087
766.87239,3281.07087
768.42673,3283.78356
768.42673,3281.07087
768.42673,3282.42721
769.98107,3282.42721
771.53541,3283.78356
773.08975,3285.13991
774.64409,3286.49626
776.19843,3287.85261
777.75277,3287.85261
779.3071,3287.85261
780.86144,3287.85261
782.41578,3279.71452
782.41578,3287.85261
782.41578,3286.49626
782.41578,3285.13991
782.41578,3283.78356
782.41578,3282.42721
782.41578,3281.07087
783.97012,3279.71452
785.52446,3278.35817
787.0788,3278.35817
788.63314,3278.35817
790.18748,3277.00182
791.74181,3277.00182
793.29615,3277.00182
794.85049,3278.35817
796.40483,3279.71452
797.95917,3281.07087
797.95917,3279.71452
799.51351,3279.71452
801.06785,3279.71452
801.06785,3278.35817
802.62219,3277.00182
802.62219,3278.35817
804.17652,3272.93278
804.17652,3275.64548
804.17652,3274.28913
805.73086,3271.57643
807.2852,3271.57643
808.83954,3271.57643
810.39388,3270.22008
811.94822,3270.22008
813.50256,3270.22008
815.0569,3270.22008
816.61123,3270.22008
818.16557,3271.57643
819.71991,3271.57643
821.27425,3271.57643
822.82859,3271.57643
824.38293,3272.93278
825.93727,3274.28913
827.49161,3275.64548
829.04594,3277.00182
830.60028,3277.00182
832.15462,3277.00182
833.70896,3277.00182
835.2633,3277.00182
836.81764,3277.00182
838.37198,3277.00182
838.37198,3275.64548
839.92632,3278.35817
839.92632,3277.00182
841.48066,3278.35817
843.03499,3278.35817
844.58933,3278.35817
846.14367,3279.71452
847.69801,3279.71452
849.25235,3279.71452
850.80669,3279.71452
852.36103,3279.71452
853.91537,3286.49626
853.91537,3281.07087
853.91537,3282.42721
853.91537,3283.78356
853.91537,3285.13991
855.4697,3286.49626
857.02404,3286.49626
858.57838,3285.13991
860.13272,3285.13991
861.68706,3285.13991
863.2414,3286.49626
864.79574,3287.85261
866.35008,3289.20895
867.90441,3287.85261
869.45875,3286.49626
871.01309,3285.13991
872.56743,3283.78356
874.12177,3282.42721
875.67611,3282.42721
877.23045,3282.42721
878.78479,3282.42721
880.33912,3282.42721
881.89346,3282.42721
883.4478,3282.42721
885.00214,3282.42721
886.55648,3282.42721
888.11082,3282.42721
889.66516,3282.42721
891.2195,3283.78356
892.77384,3285.13991
894.32817,3286.49626
895.88251,3286.49626
897.43685,3286.49626
898.99119,3286.49626
900.54553,3285.13991
902.09987,3283.78356
903.65421,3282.42721
905.20855,3281.07087
906.76288,3281.07087
908.31722,3281.07087
909.87156,3281.07087
911.4259,3279.71452
912.98024,3278.35817
914.53458,3277.00182
916.08892,3275.64548
917.64326,3275.64548
919.19759,3281.07087
919.19759,3277.00182
919.19759,3278.35817
919.19759,3279.71452
919.19759,3282.42721
919.19759,3285.13991
919.19759,3283.78356
919.19759,3286.49626
920.75193,3287.85261
922.30627,3289.20895
923.86061,3289.20895
925.41495,3289.20895
926.96929,3289.20895
928.52363,3289.20895
930.07797,3289.20895
931.6323,3289.20895
933.18664,3289.20895
933.18664,3290.5653
934.74098,3294.63434
934.74098,3290.5653
934.74098,3291.92165
934.74098,3293.278
934.74098,3297.34704
934.74098,3295.99069
936.29532,3297.34704
937.84966,3297.34704
939.404,3295.99069
940.95834,3294.63434
942.51268,3293.278
944.06701,3291.92165
945.62135,3291.92165
947.17569,3291.92165
948.73003,3293.278
950.28437,3294.63434
951.83871,3295.99069
953.39305,3295.99069
954.94739,3297.34704
956.50173,3295.99069
958.05606,3295.99069
959.6104,3295.99069
961.16474,3295.99069
962.71908,3297.34704
964.27342,3295.99069
965.82776,3294.63434
967.3821,3293.278
968.93644,3293.278
970.49077,3298.70339
970.49077,3294.63434
970.49077,3295.99069
970.49077,3297.34704
972.04511,3305.48513
972.04511,3300.05973
972.04511,3301.41608
972.04511,3302.77243
972.04511,3304.12878
973.59945,3306.84147
975.15379,3306.84147
976.70813,3308.19782
978.26247,3309.55417
979.81681,3316.33591
979.81681,3310.91052
979.81681,3312.26686
979.81681,3313.62321
979.81681,3314.97956
981.37115,3316.33591
982.92548,3321.7613
982.92548,3317.69226
982.92548,3319.0486
982.92548,3320.40495
984.47982,3321.7613
986.03416,3323.11765
987.5885,3324.47399
989.14284,3324.47399
990.69718,3332.61208
990.69718,3325.83034
990.69718,3327.18669
990.69718,3328.54304
990.69718,3329.89939
990.69718,3331.25573
992.25152,3333.96843
993.80586,3333.96843
995.36019,3397.71677
995.36019,3335.32478
995.36019,3336.68112
995.36019,3338.03747
995.36019,3396.36043
995.36019,3392.29138
995.36019,3399.07312
995.36019,3395.00408
995.36019,3393.64773
996.91453,3388.22234
996.91453,3405.85486
996.91453,3400.42947
996.91453,3403.14216
996.91453,3339.39382
996.91453,3401.78582
996.91453,3390.93503
996.91453,3407.21121
996.91453,3404.49851
998.46887,3340.75017
998.46887,3389.57869
998.46887,3381.4406
998.46887,3369.23347
998.46887,3408.56756
998.46887,3409.9239
998.46887,3411.28025
998.46887,3412.6366
998.46887,3386.86599
998.46887,3415.34929
998.46887,3416.70564
1000.02321,3418.06199
1000.02321,3413.99295
1000.02321,3420.77468
1000.02321,3342.10652
1000.02321,3419.41834
1000.02321,3380.08425
1000.02321,3424.84373
1000.02321,3382.79695
1000.02321,3384.1533
1000.02321,3385.50964
1000.02321,3378.7279
1000.02321,3377.37156
1000.02321,3376.01521
1000.02321,3374.65886
1000.02321,3373.30251
1000.02321,3367.87712
1000.02321,3370.58982
1000.02321,3423.48738
1001.57755,3366.52077
1001.57755,3428.91277
1001.57755,3427.55642
1001.57755,3371.94617
1001.57755,3426.20008
1001.57755,3422.13103
1001.57755,3343.46286
1001.57755,3344.81921
1001.57755,3346.17556
1001.57755,3347.53191
1001.57755,3432.98181
1001.57755,3431.62547
1003.13189,3435.69451
1003.13189,3351.60095
1003.13189,3430.26912
1003.13189,3355.66999
1003.13189,3437.05086
1003.13189,3438.40721
1003.13189,3439.76355
1003.13189,3441.1199
1003.13189,3348.88825
1003.13189,3434.33816
1003.13189,3350.2446
1003.13189,3365.16443
1004.68623,3359.73904
1004.68623,3354.31365
1004.68623,3357.02634
1004.68623,3358.38269
1004.68623,3352.9573
1004.68623,3363.80808
1004.68623,3442.47625
1004.68623,3447.90164
1004.68623,3446.54529
1004.68623,3445.18894
1006.24057,3362.45173
1006.24057,3443.8326
1006.24057,3361.09538
1006.24057,3449.25799
1007.79491,3456.03973
1007.79491,3450.61434
1007.79491,3453.32703
1007.79491,3454.68338
1009.34924,3451.97068
1009.34924,3462.82147
1009.34924,3457.39607
1010.90358,3458.75242
1010.90358,3460.10877
1010.90358,3461.46512
1010.90358,3466.89051
1010.90358,3464.17781
1012.45792,3465.53416
1012.45792,3470.95955
1012.45792,3468.24686
1012.45792,3469.6032
1014.01226,3473.67225
1014.01226,3475.02859
1014.01226,3472.3159
1015.5666,3480.45399
1015.5666,3476.38494
1017.12094,3477.74129
1017.12094,3479.09764
1017.12094,3480.45399
1035.773,3475.02859
1035.773,3473.67225
1035.773,3469.6032
1037.32734,3470.95955
1037.32734,3472.3159
1037.32734,3469.6032
1038.88168,3465.53416
1038.88168,3404.49851
1038.88168,3468.24686
1038.88168,3466.89051
1040.43602,3405.85486
1040.43602,3403.14216
1040.43602,3460.10877
1040.43602,3461.46512
1040.43602,3462.82147
1040.43602,3464.17781
1041.99036,3458.75242
1041.99036,3457.39607
1041.99036,3456.03973
1041.99036,3407.21121
1041.99036,3397.71677
1041.99036,3449.25799
1041.99036,3401.78582
1043.5447,3451.97068
1043.5447,3450.61434
1043.5447,3453.32703
1043.5447,3454.68338
1043.5447,3447.90164
1043.5447,3445.18894
1043.5447,3443.8326
1043.5447,3442.47625
1043.5447,3384.1533
1043.5447,3411.28025
1043.5447,3412.6366
1043.5447,3413.99295
1043.5447,3409.9239
1043.5447,3408.56756
1043.5447,3396.36043
1043.5447,3420.77468
1043.5447,3400.42947
1043.5447,3399.07312
1045.09904,3382.79695
1045.09904,3422.13103
1045.09904,3427.55642
1045.09904,3415.34929
1045.09904,3381.4406
1045.09904,3419.41834
1045.09904,3385.50964
1045.09904,3395.00408
1045.09904,3441.1199
1045.09904,3439.76355
1045.09904,3438.40721
1045.09904,3446.54529
1046.65337,3378.7279
1046.65337,3365.16443
1046.65337,3366.52077
1046.65337,3367.87712
1046.65337,3377.37156
1046.65337,3437.05086
1046.65337,3430.26912
1046.65337,3428.91277
1046.65337,3435.69451
1046.65337,3426.20008
1046.65337,3424.84373
1046.65337,3423.48738
1046.65337,3434.33816
1046.65337,3432.98181
1046.65337,3431.62547
1046.65337,3418.06199
1046.65337,3416.70564
1046.65337,3380.08425
1046.65337,3386.86599
1046.65337,3393.64773
1048.20771,3389.57869
1048.20771,3431.62547
1048.20771,3432.98181
1048.20771,3430.26912
1048.20771,3428.91277
1048.20771,3376.01521
1048.20771,3390.93503
1048.20771,3388.22234
1048.20771,3392.29138
1048.20771,3426.20008
1048.20771,3424.84373
1048.20771,3363.80808
1048.20771,3369.23347
1048.20771,3427.55642
1049.76205,3374.65886
1049.76205,3370.58982
1049.76205,3362.45173
1049.76205,3423.48738
1049.76205,3422.13103
1049.76205,3420.77468
1049.76205,3419.41834
1049.76205,3418.06199
1051.31639,3415.34929
1051.31639,3416.70564
1051.31639,3413.99295
1051.31639,3412.6366
1051.31639,3411.28025
1051.31639,3359.73904
1051.31639,3361.09538
1051.31639,3371.94617
1051.31639,3373.30251
1051.31639,3352.9573
1051.31639,3354.31365
1051.31639,3355.66999
1051.31639,3357.02634
1051.31639,3358.38269
1052.87073,3409.9239
1052.87073,3408.56756
1052.87073,3405.85486
1052.87073,3407.21121
1052.87073,3404.49851
1052.87073,3350.2446
1052.87073,3351.60095
1054.42507,3400.42947
1054.42507,3401.78582
1054.42507,3399.07312
1054.42507,3390.93503
1054.42507,3403.14216
1054.42507,3348.88825
1054.42507,3389.57869
1054.42507,3395.00408
1054.42507,3392.29138
1054.42507,3393.64773
1054.42507,3396.36043
1055.97941,3381.4406
1055.97941,3397.71677
1055.97941,3347.53191
1055.97941,3388.22234
1057.53375,3346.17556
1057.53375,3380.08425
1057.53375,3385.50964
1057.53375,3340.75017
1057.53375,3382.79695
1057.53375,3384.1533
1057.53375,3338.03747
1057.53375,3339.39382
1057.53375,3386.86599
1059.08808,3358.38269
1059.08808,3363.80808
1059.08808,3378.7279
1059.08808,3355.66999
1059.08808,3357.02634
1059.08808,3344.81921
1059.08808,3343.46286
1059.08808,3342.10652
1059.08808,3336.68112
1059.08808,3335.32478
1059.08808,3333.96843
1060.64242,3354.31365
1060.64242,3329.89939
1060.64242,3351.60095
1060.64242,3350.2446
1060.64242,3348.88825
1060.64242,3373.30251
1060.64242,3362.45173
1060.64242,3347.53191
1060.64242,3365.16443
1060.64242,3367.87712
1060.64242,3352.9573
1060.64242,3377.37156
1060.64242,3370.58982
1060.64242,3359.73904
1060.64242,3332.61208
1062.19676,3371.94617
1062.19676,3361.09538
1062.19676,3376.01521
1062.19676,3369.23347
1062.19676,3366.52077
1062.19676,3331.25573
1062.19676,3328.54304
1062.19676,3327.18669
1062.19676,3325.83034
1062.19676,3374.65886
1062.19676,3346.17556
1063.7511,3344.81921
1063.7511,3324.47399
1063.7511,3342.10652
1063.7511,3340.75017
1063.7511,3343.46286
1065.30544,3339.39382
1065.30544,3336.68112
1065.30544,3338.03747
1065.30544,3335.32478
1065.30544,3323.11765
1066.85978,3333.96843
1066.85978,3327.18669
1066.85978,3325.83034
1066.85978,3324.47399
1066.85978,3323.11765
1066.85978,3321.7613
1066.85978,3313.62321
1066.85978,3312.26686
1068.41412,3321.7613
1068.41412,3320.40495
1068.41412,3310.91052
1068.41412,3309.55417
1068.41412,3308.19782
1068.41412,3306.84147
1068.41412,3332.61208
1068.41412,3331.25573
1068.41412,3328.54304
1068.41412,3314.97956
1069.96846,3320.40495
1069.96846,3319.0486
1069.96846,3305.48513
1069.96846,3329.89939
1069.96846,3316.33591
1069.96846,3317.69226
1071.5228,3302.77243
1071.5228,3316.33591
1071.5228,3298.70339
1071.5228,3300.05973
1071.5228,3301.41608
1071.5228,3319.0486
1071.5228,3304.12878
1071.5228,3317.69226
1073.07713,3306.84147
1073.07713,3314.97956
1073.07713,3304.12878
1073.07713,3300.05973
1073.07713,3301.41608
1073.07713,3302.77243
1073.07713,3305.48513
1073.07713,3297.34704
1074.63147,3295.99069
1074.63147,3308.19782
1074.63147,3293.278
1074.63147,3294.63434
1074.63147,3313.62321
1074.63147,3300.05973
1076.18581,3295.99069
1076.18581,3294.63434
1076.18581,3309.55417
1076.18581,3312.26686
1076.18581,3298.70339
1076.18581,3297.34704
1076.18581,3291.92165
1077.74015,3310.91052
1077.74015,3293.278
1077.74015,3294.63434
1077.74015,3291.92165
1079.29449,3290.5653
1079.29449,3293.278
1079.29449,3291.92165
1080.84883,3291.92165
1080.84883,3290.5653
1082.40317,3290.5653
1082.40317,3291.92165
1083.95751,3291.92165
1083.95751,3290.5653
1085.51184,3290.5653
1085.51184,3291.92165
1087.06618,3290.5653
1087.06618,3291.92165
1088.62052,3290.5653
1088.62052,3289.20895
1088.62052,3287.85261
1088.62052,3286.49626
1088.62052,3285.13991
1088.62052,3291.92165
1090.17486,3290.5653
1090.17486,3287.85261
1090.17486,3289.20895
1090.17486,3285.13991
1091.7292,3285.13991
1091.7292,3289.20895
1093.28354,3290.5653
1093.28354,3283.78356
1094.83788,3289.20895
1094.83788,3282.42721
1096.39222,3282.42721
1096.39222,3287.85261
1097.94655,3283.78356
1097.94655,3287.85261
1099.50089,3285.13991
1099.50089,3289.20895
1101.05523,3289.20895
1101.05523,3286.49626
1102.60957,3287.85261
1102.60957,3290.5653
1104.16391,3290.5653
1104.16391,3289.20895
1105.71825,3290.5653
1105.71825,3289.20895
1107.27259,3287.85261
1107.27259,3283.78356
1107.27259,3282.42721
1107.27259,3281.07087
1107.27259,3279.71452
1107.27259,3278.35817
1107.27259,3290.5653
1107.27259,3289.20895
1107.27259,3286.49626
1107.27259,3285.13991
1108.82693,3277.00182
1108.82693,3289.20895
1108.82693,3287.85261
1108.82693,3286.49626
1108.82693,3285.13991
1108.82693,3283.78356
1108.82693,3282.42721
1108.82693,3281.07087
1108.82693,3279.71452
1108.82693,3278.35817
1110.38126,3277.00182
1110.38126,3275.64548
1111.9356,3277.00182
1111.9356,3274.28913
1111.9356,3272.93278
1111.9356,3271.57643
1113.48994,3271.57643
1113.48994,3277.00182
1115.04428,3275.64548
1115.04428,3271.57643
1115.04428,3272.93278
1115.04428,3274.28913
1116.59862,3272.93278
1116.59862,3271.57643
1118.15296,3271.57643
1118.15296,3272.93278
1119.7073,3268.86374
1119.7073,3271.57643
1119.7073,3272.93278
1119.7073,3270.22008
1121.26164,3271.57643
1121.26164,3272.93278
1121.26164,3270.22008
1121.26164,3274.28913
1121.26164,3272.93278
1121.26164,3268.86374
1121.26164,3267.50739
1122.81598,3266.15104
1122.81598,3274.28913
1122.81598,3267.50739
1122.81598,3270.22008
1122.81598,3272.93278
1122.81598,3268.86374
1124.37031,3272.93278
1124.37031,3267.50739
1124.37031,3264.79469
1124.37031,3274.28913
1124.37031,3266.15104
1125.92465,3272.93278
1125.92465,3274.28913
1125.92465,3264.79469
1127.47899,3259.3693
1127.47899,3274.28913
1127.47899,3263.43835
1127.47899,3262.082
1127.47899,3260.72565
1127.47899,3271.57643
1127.47899,3264.79469
1129.03333,3258.01295
1129.03333,3259.3693
1129.03333,3274.28913
1129.03333,3271.57643
1130.58767,3258.01295
1130.58767,3274.28913
1130.58767,3271.57643
1132.14201,3258.01295
1132.14201,3272.93278
1132.14201,3274.28913
1133.69635,3258.01295
1133.69635,3272.93278
1133.69635,3274.28913
1135.25069,3274.28913
1135.25069,3272.93278
1135.25069,3258.01295
1136.80502,3258.01295
1136.80502,3274.28913
1136.80502,3272.93278
1138.35936,3274.28913
1138.35936,3258.01295
1138.35936,3272.93278
1138.35936,3271.57643
1139.9137,3256.65661
1139.9137,3258.01295
1139.9137,3271.57643
1139.9137,3255.30026
1139.9137,3274.28913
1139.9137,3272.93278
1139.9137,3253.94391
1141.46804,3271.57643
1141.46804,3270.22008
1141.46804,3268.86374
1141.46804,3267.50739
1141.46804,3266.15104
1141.46804,3264.79469
1141.46804,3263.43835
1141.46804,3262.082
1141.46804,3260.72565
1141.46804,3252.58756
1141.46804,3251.23122
1141.46804,3272.93278
1141.46804,3253.94391
1143.02238,3259.3693
1143.02238,3262.082
1143.02238,3263.43835
1143.02238,3264.79469
1143.02238,3266.15104
1143.02238,3267.50739
1143.02238,3268.86374
1143.02238,3271.57643
1143.02238,3270.22008
1143.02238,3249.87487
1144.57672,3249.87487
1144.57672,3259.3693
1144.57672,3262.082
1146.13106,3249.87487
1146.13106,3253.94391
1146.13106,3251.23122
1146.13106,3260.72565
1146.13106,3252.58756
1146.13106,3258.01295
1146.13106,3256.65661
1146.13106,3255.30026
1147.6854,3251.23122
1147.6854,3249.87487
1147.6854,3260.72565
1149.23973,3262.082
1149.23973,3251.23122
1149.23973,3252.58756
1150.79407,3253.94391
1150.79407,3252.58756
1150.79407,3263.43835
1152.34841,3262.082
1152.34841,3251.23122
1152.34841,3252.58756
1153.90275,3251.23122
1153.90275,3260.72565
1153.90275,3249.87487
1155.45709,3251.23122
1155.45709,3249.87487
1155.45709,3260.72565
1157.01143,3251.23122
1157.01143,3249.87487
1157.01143,3260.72565
1158.56577,3249.87487
1158.56577,3260.72565
1158.56577,3251.23122
1160.12011,3260.72565
1160.12011,3249.87487
1160.12011,3251.23122
1161.67444,3251.23122
1161.67444,3249.87487
1161.67444,3260.72565
1163.22878,3260.72565
1163.22878,3252.58756
1163.22878,3251.23122
1164.78312,3251.23122
1164.78312,3249.87487
1164.78312,3260.72565
1166.33746,3251.23122
1166.33746,3260.72565
1166.33746,3249.87487
1167.8918,3251.23122
1167.8918,3260.72565
1167.8918,3252.58756
1169.44614,3251.23122
1169.44614,3252.58756
1169.44614,3259.3693
1171.00048,3258.01295
1171.00048,3252.58756
1171.00048,3251.23122
1172.55482,3253.94391
1172.55482,3252.58756
1172.55482,3256.65661
1174.10915,3255.30026
1174.10915,3253.94391
1174.10915,3252.58756
1175.66349,3255.30026
1175.66349,3253.94391
1175.66349,3256.65661
1177.21783,3255.30026
1177.21783,3256.65661
1177.21783,3253.94391
1178.77217,3253.94391
1178.77217,3255.30026
1178.77217,3256.65661
1180.32651,3256.65661
1180.32651,3255.30026
1180.32651,3251.23122
1180.32651,3252.58756
1180.32651,3253.94391
1180.32651,3258.01295
1181.88085,3249.87487
1181.88085,3248.51852
1181.88085,3256.65661
1181.88085,3251.23122
1181.88085,3258.01295
1183.43519,3258.01295
1183.43519,3256.65661
1183.43519,3248.51852
1184.98953,3256.65661
1184.98953,3247.16217
1184.98953,3248.51852
1184.98953,3258.01295
1186.54387,3258.01295
1186.54387,3247.16217
1186.54387,3245.80582
1186.54387,3256.65661
1188.0982,3245.80582
1188.0982,3258.01295
1188.0982,3259.3693
1188.0982,3244.44948
1189.65254,3260.72565
1189.65254,3259.3693
1189.65254,3245.80582
1189.65254,3263.43835
1189.65254,3262.082
1191.20688,3264.79469
1191.20688,3260.72565
1191.20688,3247.16217
1192.76122,3262.082
1192.76122,3248.51852
1192.76122,3264.79469
1194.31556,3249.87487
1194.31556,3264.79469
1194.31556,3266.15104
1194.31556,3262.082
1195.8699,3262.082
1195.8699,3263.43835
1195.8699,3251.23122
1195.8699,3264.79469
1195.8699,3266.15104
1197.42424,3264.79469
1197.42424,3263.43835
1197.42424,3252.58756
1198.97858,3253.94391
1198.97858,3262.082
1198.97858,3263.43835
1200.53291,3264.79469
1200.53291,3263.43835
1200.53291,3253.94391
1202.08725,3252.58756
1202.08725,3264.79469
1202.08725,3266.15104
1202.08725,3253.94391
1203.64159,3253.94391
1203.64159,3267.50739
1203.64159,3266.15104
1205.19593,3266.15104
1205.19593,3253.94391
1205.19593,3267.50739
1206.75027,3253.94391
1206.75027,3267.50739
1206.75027,3266.15104
1208.30461,3266.15104
1208.30461,3267.50739
1208.30461,3253.94391
1209.85895,3266.15104
1209.85895,3267.50739
1209.85895,3255.30026
1211.41329,3264.79469
1211.41329,3266.15104
1211.41329,3256.65661
1212.96762,3266.15104
1212.96762,3264.79469
1212.96762,3256.65661
1214.52196,3263.43835
1214.52196,3264.79469
1214.52196,3255.30026
1216.0763,3256.65661
1216.0763,3263.43835
1216.0763,3264.79469
1217.63064,3266.15104
1217.63064,3264.79469
1217.63064,3256.65661
1219.18498,3255.30026
1219.18498,3264.79469
1219.18498,3263.43835
1219.18498,3262.082
1219.18498,3259.3693
1219.18498,3260.72565
1220.73932,3258.01295
1220.73932,3253.94391
1220.73932,3252.58756
1220.73932,3251.23122
1222.29366,3251.23122
1222.29366,3249.87487
1222.29366,3256.65661
1223.848,3255.30026
1223.848,3249.87487
1223.848,3248.51852
1225.40233,3248.51852
1225.40233,3255.30026
1225.40233,3247.16217
1225.40233,3253.94391
1225.40233,3252.58756
1226.95667,3251.23122
1226.95667,3247.16217
1228.51101,3247.16217
1228.51101,3251.23122
1230.06535,3249.87487
1230.06535,3247.16217
1231.61969,3244.44948
1231.61969,3245.80582
1231.61969,3243.09313
1231.61969,3241.73678
1231.61969,3249.87487
1231.61969,3247.16217
1233.17403,3240.38043
1233.17403,3249.87487
1234.72837,3249.87487
1234.72837,3240.38043
1236.28271,3240.38043
1236.28271,3251.23122
1237.83705,3252.58756
1237.83705,3240.38043
1239.39138,3252.58756
1239.39138,3240.38043
1240.94572,3240.38043
1240.94572,3239.02409
1240.94572,3237.66774
1240.94572,3236.31139
1240.94572,3252.58756
1240.94572,3234.95504
1242.50006,3252.58756
1242.50006,3234.95504
1244.0544,3233.5987
1244.0544,3253.94391
1245.60874,3248.51852
1245.60874,3233.5987
1245.60874,3253.94391
1247.16308,3234.95504
1247.16308,3248.51852
1247.16308,3253.94391
1248.71742,3236.31139
1248.71742,3237.66774
1248.71742,3249.87487
1248.71742,3255.30026
1248.71742,3239.02409
1248.71742,3240.38043
1248.71742,3234.95504
1250.27176,3255.30026
1250.27176,3249.87487
1250.27176,3248.51852
1250.27176,3240.38043
1251.82609,3256.65661
1251.82609,3240.38043
1251.82609,3248.51852
1253.38043,3240.38043
1253.38043,3248.51852
1253.38043,3258.01295
1254.93477,3248.51852
1254.93477,3245.80582
1254.93477,3244.44948
1254.93477,3243.09313
1254.93477,3241.73678
1254.93477,3247.16217
1254.93477,3256.65661
1256.48911,3255.30026
1258.04345,3253.94391
1259.59779,3252.58756
1261.15213,3252.58756
1262.70647,3251.23122
1264.2608,3249.87487
1265.81514,3248.51852
1267.36948,3247.16217
1268.92382,3252.58756
1268.92382,3245.80582
1268.92382,3247.16217
1268.92382,3248.51852
1268.92382,3249.87487
1268.92382,3251.23122
1270.47816,3253.94391
1272.0325,3255.30026
1273.58684,3256.65661
1275.14118,3258.01295
1276.69551,3259.3693
1278.24985,3260.72565
1279.80419,3260.72565
1281.35853,3260.72565
1282.91287,3262.082
1282.91287,3260.72565
1284.46721,3263.43835
1284.46721,3264.79469
1284.46721,3262.082
1286.02155,3266.15104
1286.02155,3263.43835
1287.57589,3267.50739
1287.57589,3263.43835
1289.13022,3263.43835
1289.13022,3267.50739
1290.68456,3262.082
1290.68456,3268.86374
1290.68456,3270.22008
1290.68456,3271.57643
1290.68456,3272.93278
1292.2389,3274.28913
1292.2389,3260.72565
1293.79324,3274.28913
1293.79324,3259.3693
1295.34758,3274.28913
1295.34758,3259.3693
1296.90192,3274.28913
1296.90192,3259.3693
1298.45626,3259.3693
1298.45626,3274.28913
1300.0106,3275.64548
1300.0106,3259.3693
1300.0106,3277.00182
1300.0106,3278.35817
1301.56494,3278.35817
1301.56494,3259.3693
1301.56494,3279.71452
1303.11927,3260.72565
1303.11927,3279.71452
1304.67361,3262.082
1304.67361,3279.71452
1306.22795,3281.07087
1306.22795,3263.43835
1307.78229,3264.79469
1307.78229,3281.07087
1309.33663,3282.42721
1309.33663,3266.15104
1310.89097,3282.42721
1310.89097,3267.50739
1312.44531,3268.86374
1312.44531,3282.42721
1313.99965,3282.42721
1313.99965,3268.86374
1315.55398,3281.07087
1315.55398,3268.86374
1317.10832,3268.86374
1317.10832,3279.71452
1318.66266,3278.35817
1318.66266,3267.50739
1320.217,3277.00182
1320.217,3266.15104
1321.77134,3278.35817
1321.77134,3267.50739
1323.32568,3275.64548
1323.32568,3278.35817
1323.32568,3279.71452
1323.32568,3277.00182
1323.32568,3268.86374
1323.32568,3274.28913
1324.88002,3268.86374
1324.88002,3272.93278
1326.43436,3271.57643
1326.43436,3268.86374
1327.98869,3268.86374
1327.98869,3270.22008
1329.54303,3270.22008
1329.54303,3264.79469
1329.54303,3267.50739
1329.54303,3268.86374
1329.54303,3263.43835
1329.54303,3266.15104
1331.09737,3263.43835
1331.09737,3262.082
1331.09737,3270.22008
1331.09737,3260.72565
1332.65171,3268.86374
1332.65171,3263.43835
1332.65171,3262.082
1332.65171,3267.50739
1332.65171,3266.15104
1332.65171,3270.22008
1332.65171,3260.72565
1332.65171,3264.79469
1334.20605,3262.082
1334.20605,3260.72565
1335.76039,3263.43835
1335.76039,3259.3693
1337.31473,3263.43835
1337.31473,3260.72565
1338.86907,3260.72565
1338.86907,3262.082
1340.4234,3260.72565
1340.4234,3259.3693
1340.4234,3258.01295
1340.4234,3262.082
1341.97774,3258.01295
1341.97774,3260.72565
1343.53208,3258.01295
1343.53208,3260.72565
1343.53208,3259.3693
1345.08642,3259.3693
1345.08642,3258.01295
1346.64076,3259.3693
1346.64076,3260.72565
1348.1951,3260.72565
1348.1951,3262.082
1349.74944,3262.082
1349.74944,3260.72565
1351.30378,3259.3693
1351.30378,3260.72565
1351.30378,3262.082
1352.85812,3262.082
1354.41245,3262.082
1355.96679,3263.43835
1357.52113,3264.79469
1359.07547,3266.15104
1360.62981,3264.79469
1362.18415,3263.43835
1362.18415,3262.082
1363.73849,3260.72565
1365.29283,3260.72565
1365.29283,3259.3693
1365.29283,3258.01295
1366.84716,3258.01295
1368.4015,3258.01295
1369.95584,3256.65661
1371.51018,3255.30026
1373.06452,3253.94391
1374.61886,3253.94391
1374.61886,3252.58756
1376.1732,3251.23122
1376.1732,3249.87487
1413.47733,3272.93278
1413.47733,3271.57643
1413.47733,3274.28913
1415.03167,3277.00182
1415.03167,3271.57643
1415.03167,3275.64548
1416.58601,3271.57643
1416.58601,3278.35817
1418.14034,3279.71452
1418.14034,3271.57643
1418.14034,3270.22008
1419.69468,3270.22008
1419.69468,3279.71452
1421.24902,3270.22008
1421.24902,3282.42721
1421.24902,3279.71452
1421.24902,3281.07087
1422.80336,3283.78356
1424.3577,3285.13991
1425.91204,3285.13991
1427.46638,3283.78356
1427.46638,3282.42721
1427.46638,3281.07087
1427.46638,3285.13991
1429.02072,3281.07087
1430.57505,3279.71452
1432.12939,3278.35817
1433.68373,3277.00182
1435.23807,3277.00182
1436.79241,3277.00182
1438.34675,3278.35817
1438.34675,3279.71452
1439.90109,3279.71452
1441.45543,3283.78356
1441.45543,3281.07087
1441.45543,3282.42721
1441.45543,3279.71452
1443.00976,3283.78356
1444.5641,3283.78356
1446.11844,3283.78356
1447.67278,3283.78356
1449.22712,3286.49626
1449.22712,3283.78356
1449.22712,3285.13991
1450.78146,3287.85261
1452.3358,3287.85261
1453.89014,3287.85261
1455.44447,3287.85261
1456.99881,3290.5653
1456.99881,3289.20895
1458.55315,3291.92165
1460.10749,3293.278
1461.66183,3293.278
1463.21617,3289.20895
1463.21617,3291.92165
1463.21617,3287.85261
1463.21617,3286.49626
1463.21617,3290.5653
1463.21617,3285.13991
1464.77051,3285.13991
1466.32485,3285.13991
1467.87919,3285.13991
1469.43352,3283.78356
1469.43352,3285.13991
1470.98786,3282.42721
1470.98786,3283.78356
1472.5422,3279.71452
1472.5422,3282.42721
1472.5422,3281.07087
1472.5422,3278.35817
1474.09654,3278.35817
1475.65088,3277.00182
1477.20522,3277.00182
1478.75956,3274.28913
1478.75956,3275.64548
1480.3139,3270.22008
1480.3139,3268.86374
1480.3139,3272.93278
1480.3139,3271.57643
1480.3139,3274.28913
1481.86823,3267.50739
1481.86823,3268.86374
1481.86823,3266.15104
1517.25705,3304.43735
1557.44018,3324.21529
1574.9559,3319.7203
1618.65005,3308.19782
1618.65005,3312.26686
1618.65005,3310.91052
1620.20439,3313.62321
1620.20439,3308.19782
1620.20439,3309.55417
1621.75872,3308.19782
1621.75872,3313.62321
1621.75872,3306.84147
1623.31306,3297.34704
1623.31306,3298.70339
1623.31306,3300.05973
1623.31306,3301.41608
1623.31306,3306.84147
1623.31306,3305.48513
1623.31306,3304.12878
1623.31306,3302.77243
1623.31306,3314.97956
1623.31306,3313.62321
1624.8674,3316.33591
1624.8674,3314.97956
1624.8674,3298.70339
1624.8674,3317.69226
1626.42174,3316.33591
1626.42174,3298.70339
1627.97608,3317.69226
1627.97608,3297.34704
1629.53042,3295.99069
1629.53042,3319.0486
1631.08476,3320.40495
1631.08476,3295.99069
1632.6391,3295.99069
1632.6391,3321.7613
1634.19343,3321.7613
1634.19343,3295.99069
1635.74777,3321.7613
1635.74777,3295.99069
1637.30211,3297.34704
1638.85645,3298.70339
1640.41079,3300.05973
1641.96513,3301.41608
1643.51947,3304.12878
1643.51947,3302.77243
1645.07381,3304.12878
1646.62815,3304.12878
1648.18248,3304.12878
1649.73682,3305.48513
1651.29116,3306.84147
1652.8455,3306.84147
1654.39984,3305.48513
1655.95418,3304.12878
1657.50852,3305.48513
1659.06286,3305.48513
1660.61719,3305.48513
1662.17153,3298.70339
1662.17153,3302.77243
1662.17153,3304.12878
1662.17153,3305.48513
1662.17153,3306.84147
1662.17153,3301.41608
1662.17153,3300.05973
1663.72587,3297.34704
1665.28021,3297.34704
1666.83455,3297.34704
1668.38889,3297.34704
1668.38889,3295.99069
1669.94323,3295.99069
1669.94323,3294.63434
1671.49757,3293.278
1673.0519,3293.278
1674.60624,3293.278
1676.16058,3293.278
1677.71492,3294.63434
1679.26926,3294.63434
1680.8236,3294.63434
1682.37794,3293.278
1683.93228,3294.63434
1685.48661,3294.63434
1687.04095,3293.278
1688.59529,3293.278
1690.14963,3294.63434
1691.70397,3294.63434
1693.25831,3293.278
1694.81265,3291.92165
1696.36699,3297.34704
1696.36699,3295.99069
1696.36699,3294.63434
1696.36699,3293.278
1696.36699,3291.92165
1696.36699,3290.5653
1696.36699,3298.70339
1697.92133,3298.70339
1699.47566,3306.84147
1699.47566,3305.48513
1699.47566,3304.12878
1699.47566,3302.77243
1699.47566,3301.41608
1699.47566,3300.05973
1701.03,3308.19782
1702.58434,3308.19782
1704.13868,3306.84147
1705.69302,3302.77243
1705.69302,3304.12878
1705.69302,3305.48513
1705.69302,3306.84147
1707.24736,3301.41608
1708.8017,3301.41608
1710.35604,3300.05973
1711.91037,3298.70339
1713.46471,3297.34704
1715.01905,3295.99069
1716.57339,3294.63434
1718.12773,3293.278
1719.68207,3291.92165
1721.23641,3290.5653
1722.79075,3289.20895
1724.34508,3287.85261
1725.89942,3286.49626
1727.45376,3285.13991
1729.0081,3283.78356
1730.56244,3281.07087
1730.56244,3278.35817
1730.56244,3277.00182
1730.56244,3279.71452
1730.56244,3282.42721
1730.56244,3275.64548
1730.56244,3274.28913
1732.11678,3274.28913
1733.67112,3275.64548
1733.67112,3279.71452
1733.67112,3281.07087
1733.67112,3282.42721
1733.67112,3278.35817
1733.67112,3277.00182
1735.22546,3283.78356
1736.77979,3285.13991
1738.33413,3286.49626
1739.88847,3293.278
1739.88847,3294.63434
1739.88847,3290.5653
1739.88847,3289.20895
1739.88847,3287.85261
1739.88847,3291.92165
1739.88847,3295.99069
1741.44281,3297.34704
1742.99715,3297.34704
1744.55149,3297.34704
1746.10583,3297.34704
1747.66017,3297.34704
1749.2145,3297.34704
1750.76884,3297.34704
1752.32318,3297.34704
1753.87752,3297.34704
1755.43186,3297.34704
1756.9862,3297.34704
1758.54054,3297.34704
1760.09488,3298.70339
1761.64922,3300.05973
1763.20355,3298.70339
1764.75789,3300.05973
1766.31223,3301.41608
1767.86657,3302.77243
1769.42091,3304.12878
1770.97525,3301.41608
1770.97525,3302.77243
1770.97525,3300.05973
1772.52959,3300.05973
1774.08393,3300.05973
1775.63826,3300.05973
1777.1926,3300.05973
1778.74694,3300.05973
1778.74694,3295.99069
1778.74694,3297.34704
1778.74694,3298.70339
1778.74694,3294.63434
1780.30128,3294.63434
1781.85562,3294.63434
1783.40996,3293.278
1783.40996,3294.63434
1784.9643,3293.278
1784.9643,3291.92165
1786.51864,3293.278
1788.07297,3291.92165
1789.62731,3290.5653
1791.18165,3289.20895
1792.73599,3289.20895
1794.29033,3289.20895
1795.84467,3289.20895
1797.39901,3289.20895
1798.95335,3290.5653
1800.50768,3290.5653
1802.06202,3290.5653
1803.61636,3290.5653
1805.1707,3290.5653
1806.72504,3289.20895
1808.27938,3287.85261
1809.83372,3286.49626
1811.38806,3287.85261
1812.9424,3289.20895
1814.49673,3290.5653
1816.05107,3290.5653
1817.60541,3290.5653
1819.15975,3290.5653
1820.71409,3290.5653
1822.26843,3290.5653
1823.82277,3290.5653
1825.37711,3290.5653
1826.93144,3291.92165
1828.48578,3293.278
1830.04012,3294.63434
1831.59446,3294.63434
1833.1488,3294.63434
1834.70314,3295.99069
1836.25748,3295.99069
1837.81182,3294.63434
1839.36615,3293.278
1840.92049,3291.92165
1842.47483,3290.5653
1844.02917,3289.20895
1845.58351,3287.85261
1847.13785,3286.49626
1848.69219,3286.49626
1850.24653,3286.49626
1851.80086,3286.49626
1853.3552,3286.49626
1854.90954,3286.49626
1856.46388,3286.49626
1858.01822,3285.13991
1859.57256,3286.49626
1861.1269,3287.85261
1862.68124,3289.20895
1864.23557,3289.20895
1865.78991,3289.20895
1867.34425,3289.20895
1868.89859,3289.20895
1870.45293,3289.20895
1872.00727,3289.20895
1873.56161,3289.20895
1875.11595,3289.20895
1876.67029,3289.20895
1878.22462,3287.85261
1879.77896,3289.20895
1881.3333,3289.20895
1882.88764,3289.20895
1884.44198,3289.20895
1885.99632,3289.20895
1887.55066,3289.20895
1889.105,3287.85261
1890.65933,3286.49626
1892.21367,3287.85261
1893.76801,3287.85261
1895.32235,3286.49626
1896.87669,3286.49626
1898.43103,3286.49626
1899.98537,3285.13991
1901.53971,3283.78356
1903.09404,3283.78356
1904.64838,3285.13991
1906.20272,3286.49626
1907.75706,3287.85261
1909.3114,3287.85261
1909.3114,3289.20895
1910.86574,3293.278
1910.86574,3290.5653
1910.86574,3291.92165
1910.86574,3294.63434
1910.86574,3289.20895
1912.42008,3295.99069
1912.42008,3294.63434
1913.97442,3294.63434
1915.52875,3293.278
1917.08309,3294.63434
1918.63743,3295.99069
1920.19177,3297.34704
1921.74611,3297.34704
1923.30045,3295.99069
1924.85479,3295.99069
1926.40913,3295.99069
1927.96346,3295.99069
1929.5178,3295.99069
1931.07214,3293.278
1931.07214,3294.63434
1931.07214,3291.92165
1931.07214,3295.99069
1931.07214,3290.5653
1932.62648,3289.20895
1934.18082,3286.49626
1934.18082,3287.85261
1935.73516,3286.49626
1937.2895,3286.49626
1938.84384,3285.13991
1940.39818,3283.78356
1941.95251,3282.42721
1943.50685,3282.42721
1945.06119,3282.42721
1946.61553,3282.42721
1948.16987,3282.42721
1949.72421,3281.07087
1949.72421,3282.42721
1951.27855,3281.07087
1952.83289,3281.07087
1954.38722,3281.07087
1955.94156,3279.71452
1957.4959,3272.93278
1957.4959,3274.28913
1957.4959,3278.35817
1957.4959,3275.64548
1957.4959,3277.00182
1959.05024,3271.57643
1960.60458,3271.57643
1962.15892,3271.57643
1963.71326,3271.57643
1965.2676,3271.57643
1966.82193,3271.57643
1968.37627,3271.57643
1969.93061,3272.93278
1971.48495,3272.93278
1973.03929,3272.93278
1974.59363,3272.93278
1976.14797,3272.93278
1977.70231,3274.28913
1979.25664,3274.28913
1979.25664,3278.35817
1979.25664,3281.07087
1979.25664,3279.71452
1979.25664,3275.64548
1979.25664,3277.00182
1980.81098,3282.42721
1980.81098,3283.78356
1982.36532,3283.78356
1983.91966,3283.78356
1983.91966,3285.13991
1983.91966,3286.49626
1983.91966,3287.85261
1983.91966,3290.5653
1983.91966,3289.20895
1985.474,3290.5653
1987.02834,3289.20895
1988.58268,3287.85261
1990.13702,3286.49626
1991.69136,3287.85261
1993.24569,3289.20895
1994.80003,3289.20895
1996.35437,3290.5653
1997.90871,3291.92165
1999.46305,3290.5653
2001.01739,3290.5653
2002.57173,3290.5653
2004.12607,3290.5653
2005.6804,3290.5653
2007.23474,3286.49626
2007.23474,3285.13991
2007.23474,3283.78356
2007.23474,3289.20895
2007.23474,3287.85261
2008.78908,3283.78356
2010.34342,3282.42721
2010.34342,3283.78356
2011.89776,3281.07087
2011.89776,3282.42721
2013.4521,3279.71452
2013.4521,3281.07087
2015.00644,3279.71452
2016.56078,3278.35817
2016.56078,3279.71452
2018.11511,3279.71452
2019.66945,3281.07087
2021.22379,3282.42721
2022.77813,3282.42721
2024.33247,3282.42721
2025.88681,3281.07087
2027.44115,3279.71452
2028.99549,3278.35817
2030.54982,3278.35817
2032.10416,3277.00182
2033.6585,3275.64548
2035.21284,3277.00182
2036.76718,3277.00182
2038.32152,3277.00182
2039.87586,3277.00182
2041.4302,3277.00182
2042.98453,3277.00182
2044.53887,3277.00182
2046.09321,3277.00182
2047.64755,3277.00182
2049.20189,3277.00182
2050.75623,3277.00182
2052.31057,3277.00182
2053.86491,3277.00182
2055.41925,3277.00182
2056.97358,3278.35817
2058.52792,3279.71452
2060.08226,3281.07087
2061.6366,3282.42721
2063.19094,3282.42721
2064.74528,3282.42721
2066.29962,3282.42721
2067.85396,3281.07087
2069.40829,3281.07087
2070.96263,3279.71452
2072.51697,3278.35817
2074.07131,3279.71452
2075.62565,3281.07087
2077.17999,3282.42721
2078.73433,3283.78356
2080.28867,3282.42721
2081.843,3281.07087
2083.39734,3279.71452
2084.95168,3278.35817
2086.50602,3278.35817
2088.06036,3279.71452
2089.6147,3281.07087
2091.16904,3282.42721
2092.72338,3281.07087
2094.27771,3279.71452
2095.83205,3279.71452
2097.38639,3281.07087
2098.94073,3282.42721
2100.49507,3282.42721
2102.04941,3283.78356
2103.60375,3283.78356
2105.15809,3283.78356
2106.71243,3283.78356
2108.26676,3282.42721
2109.8211,3283.78356
2111.37544,3282.42721
2112.92978,3281.07087
2114.48412,3281.07087
2116.03846,3279.71452
2117.5928,3279.71452
2119.14714,3281.07087
2120.70147,3282.42721
2122.25581,3283.78356
2123.81015,3285.13991
2125.36449,3286.49626
2126.91883,3285.13991
2128.47317,3283.78356
2130.02751,3282.42721
2131.58185,3281.07087
2133.13618,3279.71452
2134.69052,3278.35817
2136.24486,3277.00182
2137.7992,3277.00182
2139.35354,3277.00182
2140.90788,3277.00182
2142.46222,3278.35817
2144.01656,3279.71452
2145.57089,3281.07087
2147.12523,3282.42721
2148.67957,3282.42721
2150.23391,3283.78356
2151.78825,3282.42721
2153.34259,3282.42721
2154.89693,3281.07087
2156.45127,3279.71452
2158.0056,3279.71452
2158.0056,3278.35817
2159.55994,3278.35817
2161.11428,3279.71452
2162.66862,3279.71452
2164.22296,3279.71452
2165.7773,3279.71452
2167.33164,3279.71452
2168.88598,3279.71452
2170.44032,3281.07087
2171.99465,3281.07087
2173.54899,3279.71452
2175.10333,3279.71452
2176.65767,3279.71452
2178.21201,3278.35817
2179.76635,3277.00182
2181.32069,3275.64548
2182.87503,3274.28913
2184.42936,3274.28913
2185.9837,3274.28913
2187.53804,3275.64548
2189.09238,3277.00182
2190.64672,3277.00182
2192.20106,3277.00182
2193.7554,3277.00182
2195.30974,3277.00182
2196.86407,3277.00182
2198.41841,3277.00182
2199.97275,3275.64548
2201.52709,3274.28913
2203.08143,3275.64548
2204.63577,3275.64548
2204.63577,3277.00182
2206.19011,3277.00182
2207.74445,3277.00182
2209.29878,3275.64548
2210.85312,3275.64548
2212.40746,3275.64548
2213.9618,3275.64548
2215.51614,3274.28913
2217.07048,3275.64548
2218.62482,3277.00182
2220.17916,3277.00182
2220.17916,3278.35817
2220.17916,3275.64548
2221.7335,3275.64548
2223.28783,3274.28913
2223.28783,3272.93278
2223.28783,3271.57643
2224.84217,3271.57643
2226.39651,3272.93278
2227.95085,3271.57643
2229.50519,3272.93278
2231.05953,3272.93278
2232.61387,3272.93278
2234.16821,3272.93278
2235.72254,3272.93278
2237.27688,3271.57643
2238.83122,3270.22008
2240.38556,3270.22008
2241.9399,3270.22008
2243.49424,3271.57643
2245.04858,3272.93278
2246.60292,3272.93278
2248.15725,3271.57643
2249.71159,3270.22008
2251.26593,3268.86374
2252.82027,3270.22008
2254.37461,3270.22008
2255.92895,3271.57643
2257.48329,3271.57643
2259.03763,3271.57643
2260.59196,3271.57643
2262.1463,3271.57643
2263.70064,3270.22008
2265.25498,3270.22008
2266.80932,3271.57643
2268.36366,3272.93278
2269.918,3274.28913
2271.47234,3275.64548
2273.02667,3275.64548
2274.58101,3277.00182
2276.13535,3278.35817
2277.68969,3279.71452
2279.24403,3278.35817
2280.79837,3279.71452
2282.35271,3279.71452
2283.90705,3271.57643
2283.90705,3272.93278
2283.90705,3264.79469
2283.90705,3266.15104
2283.90705,3267.50739
2283.90705,3268.86374
2283.90705,3270.22008
2283.90705,3279.71452
2283.90705,3278.35817
2283.90705,3277.00182
2283.90705,3275.64548
2283.90705,3274.28913
2285.46139,3264.79469
2287.01572,3264.79469
2288.57006,3263.43835
2290.1244,3263.43835
2291.67874,3263.43835
2291.67874,3262.082
2293.23308,3260.72565
2293.23308,3259.3693
2327.10168,3304.43735
2384.80054,3294.54838
2424.98367,3294.54838
2460.01512,3279.26543
2551.71508,3279.26543
2597.0499,3279.26543
2666.08245,3279.26543
2718.62963,3284.65942
2740.88265,3283.78356
2742.43699,3282.42721
2743.99133,3281.07087
2745.54567,3281.07087
2747.1,3279.71452
2747.1,3278.35817
2747.1,3277.00182
2747.1,3275.64548
2747.1,3274.28913
2747.1,3272.93278
2747.1,3271.57643
2747.1,3270.22008
2748.65434,3268.86374
2748.65434,3266.15104
2748.65434,3267.50739
2748.65434,3264.79469
2748.65434,3263.43835
2750.20868,3264.79469
2751.76302,3266.15104
2753.31736,3267.50739
2754.8717,3267.50739
2756.42604,3267.50739
2757.98038,3267.50739
2759.53471,3267.50739
2761.08905,3268.86374
2762.64339,3270.22008
2764.19773,3271.57643
2765.75207,3270.22008
2767.30641,3268.86374
2768.86075,3267.50739
2770.41509,3266.15104
2771.96942,3266.15104
2773.52376,3266.15104
2775.0781,3264.79469
2776.63244,3263.43835
2778.18678,3262.082
2779.74112,3260.72565
2781.29546,3259.3693
2782.8498,3259.3693
2784.40413,3259.3693
2785.95847,3260.72565
2787.51281,3259.3693
2789.06715,3259.3693
2790.62149,3259.3693
2792.17583,3260.72565
2793.73017,3260.72565
2795.28451,3260.72565
2795.28451,3262.082
2796.83885,3262.082
2798.39318,3262.082
2798.39318,3263.43835
2799.94752,3264.79469
2801.50186,3264.79469
2803.0562,3264.79469
2803.0562,3266.15104
2804.61054,3266.15104
2806.16488,3267.50739
2807.71922,3267.50739
2807.71922,3268.86374
2809.27356,3271.57643
2809.27356,3272.93278
2809.27356,3274.28913
2809.27356,3268.86374
2809.27356,3270.22008
2810.82789,3275.64548
2812.38223,3277.00182
2813.93657,3283.78356
2813.93657,3278.35817
2813.93657,3279.71452
2813.93657,3281.07087
2813.93657,3282.42721
2815.49091,3283.78356
2817.04525,3283.78356
2818.59959,3285.13991
2820.15393,3285.13991
2821.70827,3283.78356
2823.2626,3283.78356
2824.81694,3283.78356
2826.37128,3282.42721
2826.37128,3281.07087
2827.92562,3281.07087
2829.47996,3281.07087
2829.47996,3279.71452
2831.0343,3279.71452
2831.0343,3278.35817
2832.58864,3278.35817
2832.58864,3277.00182
2834.14298,3277.00182
2834.14298,3275.64548
2834.14298,3274.28913
2835.69731,3274.28913
2837.25165,3274.28913
2838.80599,3274.28913
2840.36033,3274.28913
2841.91467,3274.28913
2843.46901,3274.28913
2845.02335,3275.64548
2846.57769,3277.00182
2848.13202,3275.64548
2849.68636,3274.28913
2851.2407,3272.93278
2852.79504,3272.93278
2854.34938,3274.28913
2855.90372,3275.64548
2857.45806,3277.00182
2859.0124,3278.35817
2860.56674,3279.71452
2862.12107,3279.71452
2863.67541,3278.35817
2865.22975,3277.00182
2866.78409,3278.35817
2868.33843,3277.00182
2869.89277,3275.64548
2871.44711,3274.28913
2873.00145,3272.93278
2874.55578,3271.57643
2876.11012,3271.57643
2877.66446,3270.22008
2879.2188,3271.57643
2880.77314,3272.93278
2882.32748,3272.93278
2883.88182,3274.28913
2885.43616,3275.64548
2886.99049,3277.00182
2888.54483,3277.00182
2890.09917,3277.00182
2891.65351,3277.00182
2893.20785,3278.35817
2894.76219,3278.35817
2896.31653,3278.35817
2897.87087,3279.71452
2899.4252,3279.71452
2900.97954,3279.71452
2902.53388,3278.35817
2904.08822,3279.71452
2905.64256,3279.71452
2907.1969,3279.71452
2908.75124,3279.71452
2910.30558,3279.71452
2911.85992,3278.35817
2913.41425,3277.00182
2914.96859,3278.35817
2916.52293,3279.71452
2918.07727,3279.71452
2919.63161,3278.35817
2921.18595,3279.71452
2922.74029,3281.07087
2924.29463,3281.07087
2925.84896,3281.07087
2927.4033,3279.71452
2928.95764,3278.35817
2930.51198,3278.35817
2932.06632,3278.35817
2933.62066,3277.00182
2935.175,3275.64548
2936.72934,3274.28913
2938.28367,3272.93278
2939.83801,3274.28913
2941.39235,3274.28913
2941.39235,3272.93278
2942.94669,3272.93278
2944.50103,3272.93278
2946.05537,3272.93278
2947.60971,3272.93278
2949.16405,3266.15104
2949.16405,3270.22008
2949.16405,3267.50739
2949.16405,3272.93278
2949.16405,3271.57643
2949.16405,3268.86374
2950.71838,3264.79469
2952.27272,3266.15104
2953.82706,3266.15104
2955.3814,3266.15104
2956.93574,3264.79469
2958.49008,3264.79469
2960.04442,3266.15104
2961.59876,3267.50739
2963.15309,3268.86374
2964.70743,3270.22008
2966.26177,3271.57643
2967.81611,3270.22008
2969.37045,3270.22008
2970.92479,3270.22008
2972.47913,3270.22008
2974.03347,3270.22008
2975.58781,3275.64548
2975.58781,3274.28913
2975.58781,3272.93278
2975.58781,3271.57643
2977.14214,3275.64548
2978.69648,3277.00182
2980.25082,3275.64548
2981.80516,3274.28913
2983.3595,3272.93278
2984.91384,3274.28913
2986.46818,3271.57643
2986.46818,3275.64548
2986.46818,3272.93278
2986.46818,3274.28913
2988.02252,3270.22008
2989.57685,3268.86374
2991.13119,3268.86374
2992.68553,3268.86374
2994.23987,3268.86374
2995.79421,3268.86374
2997.34855,3268.86374
2998.90289,3270.22008
3000.45723,3271.57643
3002.01156,3272.93278
3003.5659,3272.93278
3005.12024,3274.28913
3006.67458,3275.64548
3008.22892,3274.28913
3009.78326,3275.64548
3011.3376,3275.64548
3012.89194,3275.64548
3014.44627,3277.00182
3016.00061,3275.64548
3017.55495,3277.00182
3019.10929,3277.00182
3020.66363,3277.00182
3022.21797,3277.00182
3023.77231,3278.35817
3025.32665,3278.35817
3026.88099,3278.35817
3028.43532,3277.00182
3029.98966,3275.64548
3031.544,3274.28913
3033.09834,3274.28913
3034.65268,3274.28913
3036.20702,3274.28913
3037.76136,3274.28913
3039.3157,3274.28913
3040.87003,3274.28913
3042.42437,3274.28913
3043.97871,3274.28913
3045.53305,3274.28913
3047.08739,3272.93278
3048.64173,3272.93278
3050.19607,3271.57643
3051.75041,3270.22008
3053.30474,3271.57643
3054.85908,3271.57643
3056.41342,3272.93278
3057.96776,3272.93278
3059.5221,3272.93278
3061.07644,3272.93278
3062.63078,3272.93278
3064.18512,3271.57643
3065.73945,3272.93278
3067.29379,3274.28913
3068.84813,3274.28913
3070.40247,3274.28913
3071.95681,3274.28913
3073.51115,3274.28913
3075.06549,3274.28913
3076.61983,3272.93278
3078.17416,3271.57643
3079.7285,3270.22008
3081.28284,3271.57643
3082.83718,3271.57643
3084.39152,3271.57643
3085.94586,3274.28913
3085.94586,3272.93278
3087.5002,3275.64548
3089.05454,3275.64548
3090.60888,3275.64548
3092.16321,3274.28913
3093.71755,3274.28913
3095.27189,3274.28913
3096.82623,3275.64548
3098.38057,3277.00182
3099.93491,3278.35817
3101.48925,3279.71452
3103.04359,3279.71452
3104.59792,3279.71452
3106.15226,3281.07087
3107.7066,3282.42721
3109.26094,3283.78356
3109.26094,3281.07087
3109.26094,3279.71452
3109.26094,3282.42721
3110.81528,3278.35817
3112.36962,3278.35817
3113.92396,3278.35817
3115.4783,3278.35817
3117.03263,3279.71452
3118.58697,3281.07087
3120.14131,3281.07087
3121.69565,3281.07087
3123.24999,3281.07087
3124.80433,3279.71452
3126.35867,3278.35817
3127.91301,3278.35817
3129.46734,3279.71452
3131.02168,3281.07087
3132.57602,3279.71452
3134.13036,3281.07087
3135.6847,3281.07087
3137.23904,3281.07087
3138.79338,3279.71452
3140.34772,3279.71452
3141.90206,3279.71452
3143.45639,3278.35817
3145.01073,3277.00182
3146.56507,3275.64548
3148.11941,3275.64548
3149.67375,3277.00182
3151.22809,3275.64548
3152.78243,3274.28913
3154.33677,3274.28913
3155.8911,3274.28913
3157.44544,3272.93278
3158.99978,3272.93278
3160.55412,3274.28913
3162.10846,3274.28913
3163.6628,3274.28913
3165.21714,3274.28913
3166.77148,3272.93278
3168.32581,3282.42721
3168.32581,3272.93278
3168.32581,3279.71452
3168.32581,3278.35817
3168.32581,3277.00182
3168.32581,3275.64548
3168.32581,3274.28913
3168.32581,3285.13991
3168.32581,3271.57643
3168.32581,3283.78356
3168.32581,3281.07087
3169.88015,3286.49626
3171.43449,3286.49626
3172.98883,3286.49626
3174.54317,3286.49626
3176.09751,3286.49626
3177.65185,3286.49626
3177.65185,3287.85261
3177.65185,3293.278
3177.65185,3290.5653
3177.65185,3291.92165
3177.65185,3289.20895
3179.20619,3293.278
3180.76052,3294.63434
3182.31486,3294.63434
3183.8692,3294.63434
3185.42354,3293.278
3185.42354,3291.92165
3185.42354,3290.5653
3185.42354,3289.20895
3185.42354,3287.85261
3186.97788,3287.85261
3188.53222,3287.85261
3190.08656,3287.85261
3191.6409,3287.85261
3193.19523,3287.85261
3193.19523,3286.49626
3194.74957,3287.85261
3196.30391,3289.20895
3197.85825,3289.20895
3199.41259,3289.20895
3200.96693,3289.20895
3202.52127,3287.85261
3204.07561,3286.49626
3205.62995,3285.13991
3207.18428,3283.78356
3208.73862,3282.42721
3210.29296,3281.07087
3211.8473,3279.71452
3213.40164,3279.71452
3214.95598,3281.07087
3216.51032,3281.07087
3218.06466,3279.71452
3219.61899,3279.71452
3221.17333,3281.07087
3222.72767,3281.07087
3224.28201,3281.07087
3225.83635,3282.42721
3227.39069,3283.78356
3228.94503,3285.13991
3230.49937,3286.49626
3232.0537,3287.85261
3233.60804,3289.20895
3235.16238,3287.85261
3236.71672,3277.00182
3236.71672,3286.49626
3236.71672,3285.13991
3236.71672,3283.78356
3236.71672,3282.42721
3236.71672,3281.07087
3236.71672,3279.71452
3236.71672,3278.35817
3238.27106,3277.00182
3239.8254,3275.64548
3241.37974,3274.28913
3242.93408,3271.57643
3242.93408,3272.93278
3242.93408,3270.22008
3242.93408,3274.28913
3244.48841,3272.93278
3244.48841,3271.57643
3244.48841,3270.22008
3246.04275,3274.28913
3246.04275,3272.93278
3247.59709,3274.28913
3249.15143,3274.28913
3250.70577,3274.28913
3252.26011,3274.28913
3253.81445,3274.28913
3255.36879,3275.64548
3256.92313,3277.00182
3256.92313,3275.64548
3258.47746,3278.35817
3260.0318,3279.71452
3261.58614,3281.07087
3263.14048,3282.42721
3264.69482,3283.78356
3266.24916,3285.13991
3267.8035,3286.49626
3267.8035,3287.85261
3269.35784,3289.20895
3270.91217,3287.85261
3272.46651,3286.49626
3274.02085,3285.13991
3275.57519,3283.78356
3277.12953,3285.13991
3278.68387,3286.49626
3280.23821,3285.13991
3281.79255,3283.78356
3283.34688,3283.78356
3284.90122,3283.78356
3286.45556,3282.42721
3288.0099,3281.07087
3289.56424,3281.07087
3291.11858,3281.07087
3292.67292,3279.71452
3294.22726,3278.35817
3295.78159,3278.35817
3297.33593,3285.13991
3297.33593,3283.78356
3297.33593,3282.42721
3297.33593,3281.07087
3297.33593,3279.71452
3298.89027,3286.49626
3300.44461,3286.49626
3300.44461,3287.85261
3301.99895,3286.49626
3303.55329,3285.13991
3305.10763,3283.78356
3306.66197,3282.42721
3308.2163,3282.42721
3309.77064,3282.42721
3311.32498,3282.42721
3312.87932,3282.42721
3314.43366,3282.42721
3315.988,3282.42721
3317.54234,3283.78356
3319.09668,3285.13991
3320.65102,3283.78356
3322.20535,3283.78356
3323.75969,3283.78356
3325.31403,3285.13991
3326.86837,3286.49626
3328.42271,3287.85261
3329.97705,3289.20895
3331.53139,3290.5653
3333.08573,3289.20895
3334.64006,3289.20895
3336.1944,3290.5653
3337.74874,3291.92165
3339.30308,3293.278
3340.85742,3293.278
3342.41176,3291.92165
3343.9661,3290.5653
3345.52044,3289.20895
3347.07477,3289.20895
3348.62911,3289.20895
3350.18345,3289.20895
3351.73779,3289.20895
3353.29213,3289.20895
3354.84647,3287.85261
3356.40081,3286.49626
3357.95515,3285.13991
3359.50948,3285.13991
3361.06382,3285.13991
3362.61816,3286.49626
3364.1725,3286.49626
3365.72684,3286.49626
3367.28118,3287.85261
3368.83552,3289.20895
3370.38986,3289.20895
3371.9442,3289.20895
3373.49853,3289.20895
3375.05287,3289.20895
3376.60721,3287.85261
3378.16155,3286.49626
3378.16155,3285.13991
3378.16155,3283.78356
3378.16155,3282.42721
3379.71589,3283.78356
3379.71589,3282.42721
3381.27023,3283.78356
3381.27023,3282.42721
3382.82457,3283.78356
3382.82457,3285.13991
3384.37891,3283.78356
3384.37891,3282.42721
3385.93324,3282.42721
3385.93324,3281.07087
3387.48758,3283.78356
3387.48758,3281.07087
3389.04192,3281.07087
3389.04192,3285.13991
3390.59626,3281.07087
3390.59626,3286.49626
3392.1506,3286.49626
3392.1506,3281.07087
3393.70494,3279.71452
3393.70494,3286.49626
3395.25928,3286.49626
3395.25928,3279.71452
3396.81362,3287.85261
3396.81362,3279.71452
3396.81362,3278.35817
3398.36795,3279.71452
3398.36795,3287.85261
3399.92229,3281.07087
3399.92229,3286.49626
3401.47663,3285.13991
3401.47663,3281.07087
3403.03097,3279.71452
3403.03097,3283.78356
3404.58531,3278.35817
3404.58531,3283.78356
3406.13965,3278.35817
3406.13965,3283.78356
3407.69399,3278.35817
3407.69399,3285.13991
3409.24833,3277.00182
3409.24833,3286.49626
3410.80266,3277.00182
3410.80266,3286.49626
3412.357,3278.35817
3412.357,3285.13991
3413.91134,3278.35817
3413.91134,3283.78356
3415.46568,3283.78356
3415.46568,3279.71452
3417.02002,3281.07087
3417.02002,3283.78356
3418.57436,3281.07087
3418.57436,3283.78356
3420.1287,3283.78356
3420.1287,3281.07087
3421.68304,3281.07087
3421.68304,3285.13991
3423.23737,3281.07087
3423.23737,3286.49626
3424.79171,3279.71452
3424.79171,3287.85261
3426.34605,3282.42721
3426.34605,3283.78356
3426.34605,3285.13991
3426.34605,3278.35817
3426.34605,3279.71452
3426.34605,3289.20895
3426.34605,3286.49626
3426.34605,3287.85261
3427.90039,3271.57643
3427.90039,3275.64548
3427.90039,3281.07087
3427.90039,3274.28913
3427.90039,3278.35817
3427.90039,3277.00182
3427.90039,3272.93278
3429.45473,3270.22008
3429.45473,3281.07087
3431.00907,3270.22008
3431.00907,3281.07087
3432.56341,3270.22008
3432.56341,3281.07087
3432.56341,3279.71452
3434.11775,3279.71452
3434.11775,3270.22008
3435.67209,3271.57643
3435.67209,3278.35817
3435.67209,3279.71452
3437.22642,3278.35817
3437.22642,3270.22008
3438.78076,3271.57643
3438.78076,3279.71452
3440.3351,3281.07087
3440.3351,3272.93278
3441.88944,3274.28913
3441.88944,3279.71452
3443.44378,3272.93278
3443.44378,3278.35817
3444.99812,3277.00182
3444.99812,3271.57643
3446.55246,3278.35817
3446.55246,3279.71452
3446.55246,3281.07087
3446.55246,3282.42721
3446.55246,3270.22008
3446.55246,3283.78356
3448.1068,3285.13991
3448.1068,3270.22008
3449.66113,3271.57643
3449.66113,3286.49626
3451.21547,3271.57643
3451.21547,3286.49626
3452.76981,3272.93278
3452.76981,3287.85261
3452.76981,3286.49626
3452.76981,3271.57643
3454.32415,3281.07087
3454.32415,3282.42721
3454.32415,3283.78356
3454.32415,3285.13991
3454.32415,3274.28913
3454.32415,3272.93278
3454.32415,3275.64548
3454.32415,3279.71452
3454.32415,3278.35817
3454.32415,3277.00182
3454.32415,3287.85261
3455.87849,3287.85261
3455.87849,3283.78356
3457.43283,3282.42721
3457.43283,3286.49626
3458.98717,3285.13991
3458.98717,3281.07087
3460.54151,3279.71452
3460.54151,3285.13991
3462.09584,3278.35817
3462.09584,3285.13991
3463.65018,3277.00182
3463.65018,3286.49626
3465.20452,3277.00182
3465.20452,3287.85261
3466.75886,3289.20895
3466.75886,3277.00182
3468.3132,3277.00182
3468.3132,3290.5653
3469.86754,3277.00182
3469.86754,3291.92165
3471.42188,3286.49626
3471.42188,3290.5653
3471.42188,3285.13991
3471.42188,3278.35817
3471.42188,3289.20895
3471.42188,3287.85261
3472.97622,3283.78356
3472.97622,3279.71452
3474.53055,3278.35817
3474.53055,3282.42721
3476.08489,3282.42721
3476.08489,3278.35817
3477.63923,3282.42721
3477.63923,3277.00182
3479.19357,3281.07087
3479.19357,3282.42721
3479.19357,3277.00182
3480.74791,3278.35817
3480.74791,3281.07087
3480.74791,3279.71452
3482.30225,3281.07087
3482.30225,3278.35817
3483.85659,3282.42721
3483.85659,3279.71452
3485.41093,3281.07087
3485.41093,3282.42721
3486.96527,3282.42721
3486.96527,3281.07087
3488.5196,3279.71452
3488.5196,3282.42721
3490.07394,3281.07087
3490.07394,3278.35817
3491.62828,3279.71452
3491.62828,3278.35817
3493.18262,3278.35817
3493.18262,3279.71452
3493.18262,3281.07087
3494.73696,3277.00182
3494.73696,3282.42721
3496.2913,3281.07087
3496.2913,3278.35817
3497.84564,3279.71452
3497.84564,3278.35817
3499.39998,3279.71452
3499.39998,3278.35817
3500.95431,3278.35817
3500.95431,3279.71452
3502.50865,3278.35817
3502.50865,3279.71452
3504.06299,3278.35817
3504.06299,3279.71452
3505.61733,3278.35817
3505.61733,3281.07087
3507.17167,3282.42721
3507.17167,3278.35817
3507.17167,3279.71452
3507.17167,3281.07087
3507.17167,3285.13991
3507.17167,3283.78356
3508.72601,3282.42721
3508.72601,3285.13991
3510.28035,3285.13991
3510.28035,3282.42721
3511.83469,3287.85261
3511.83469,3289.20895
3511.83469,3286.49626
3511.83469,3283.78356
3511.83469,3290.5653
3511.83469,3291.92165
3511.83469,3293.278
3513.38902,3285.13991
3514.94336,3283.78356
3516.4977,3282.42721
3518.05204,3283.78356
3519.60638,3285.13991
3521.16072,3286.49626
3522.71506,3287.85261
3524.2694,3289.20895
3525.82373,3287.85261
3527.37807,3289.20895
3528.93241,3289.20895
3530.48675,3289.20895
3532.04109,3286.49626
3532.04109,3287.85261
3533.59543,3285.13991
3535.14977,3282.42721
3535.14977,3285.13991
3535.14977,3281.07087
3535.14977,3283.78356
3536.70411,3282.42721
3538.25844,3283.78356
3539.81278,3285.13991
3541.36712,3285.13991
3542.92146,3286.49626
3544.4758,3286.49626
3546.03014,3285.13991
3547.58448,3283.78356
3549.13882,3282.42721
3550.69316,3283.78356
3552.24749,3283.78356
3553.80183,3282.42721
3555.35617,3282.42721
3556.91051,3281.07087
3558.46485,3279.71452
3560.01919,3278.35817
3561.57353,3279.71452
3563.12787,3279.71452
3564.6822,3279.71452
3566.23654,3278.35817
3567.79088,3277.00182
3569.34522,3277.00182
3570.89956,3282.42721
3570.89956,3283.78356
3570.89956,3279.71452
3570.89956,3278.35817
3570.89956,3281.07087
3572.4539,3283.78356
3574.00824,3289.20895
3574.00824,3290.5653
3574.00824,3287.85261
3574.00824,3291.92165
3574.00824,3286.49626
3574.00824,3285.13991
3575.56258,3290.5653
3577.11691,3289.20895
3578.67125,3287.85261
3580.22559,3286.49626
3581.77993,3285.13991
3583.33427,3285.13991
3584.88861,3286.49626
3586.44295,3286.49626
3587.99729,3286.49626
3589.55162,3286.49626
3591.10596,3286.49626
3592.6603,3286.49626
3594.21464,3287.85261
3595.76898,3286.49626
3595.76898,3289.20895
3595.76898,3287.85261
3597.32332,3281.07087
3597.32332,3285.13991
3597.32332,3282.42721
3597.32332,3283.78356
3598.87766,3282.42721
3600.432,3283.78356
3601.98634,3285.13991
3603.54067,3286.49626
3605.09501,3285.13991
3606.64935,3283.78356
3608.20369,3282.42721
3609.75803,3282.42721
3611.31237,3283.78356
3612.86671,3285.13991
3614.42105,3285.13991
3615.97538,3285.13991
3617.52972,3286.49626
3619.08406,3287.85261
3620.6384,3289.20895
3622.19274,3285.13991
3622.19274,3283.78356
3622.19274,3289.20895
3622.19274,3287.85261
3622.19274,3286.49626
3623.74708,3282.42721
3625.30142,3282.42721
3626.85576,3282.42721
3628.41009,3282.42721
3629.96443,3283.78356
3631.51877,3285.13991
3633.07311,3283.78356
3634.62745,3282.42721
3636.18179,3281.07087
3637.73613,3279.71452
3639.29047,3278.35817
3640.8448,3277.00182
3642.39914,3275.64548
3643.95348,3275.64548
3645.50782,3279.71452
3645.50782,3278.35817
3645.50782,3277.00182
3647.06216,3285.13991
3647.06216,3282.42721
3647.06216,3283.78356
3647.06216,3281.07087
3648.6165,3283.78356
3650.17084,3282.42721
3651.72518,3281.07087
3653.27951,3279.71452
3654.83385,3279.71452
3656.38819,3279.71452
3657.94253,3281.07087
3659.49687,3281.07087
3661.05121,3281.07087
3662.60555,3281.07087
3664.15989,3281.07087
3665.71423,3282.42721
3667.26856,3282.42721
3668.8229,3282.42721
3670.37724,3286.49626
3670.37724,3285.13991
3670.37724,3283.78356
3670.37724,3287.85261
3670.37724,3289.20895
3670.37724,3290.5653
3671.93158,3290.5653
3673.48592,3290.5653
3675.04026,3290.5653
3675.04026,3291.92165
3675.04026,3293.278
3675.04026,3294.63434
3675.04026,3295.99069
3676.5946,3297.34704
3678.14894,3298.70339
3678.14894,3300.05973
3678.14894,3301.41608
3678.14894,3302.77243
3678.14894,3304.12878
3679.70327,3302.77243
3681.25761,3301.41608
3682.81195,3301.41608
3684.36629,3301.41608
3685.92063,3301.41608
3687.47497,3300.05973
3689.02931,3298.70339
3690.58365,3298.70339
3690.58365,3297.34704
3690.58365,3295.99069
3690.58365,3294.63434
3690.58365,3293.278
3692.13798,3293.278
3692.13798,3291.92165
3692.13798,3290.5653
3693.69232,3290.5653
3693.69232,3289.20895
3693.69232,3287.85261
3695.24666,3287.85261
3695.24666,3286.49626
3696.801,3285.13991
3696.801,3283.78356
3698.35534,3283.78356
3698.35534,3282.42721
3699.90968,3282.42721
3701.46402,3282.42721
3701.46402,3281.07087
3703.01836,3281.07087
3703.01836,3279.71452
3704.57269,3278.35817
3706.12703,3278.35817
3707.68137,3277.00182
3709.23571,3277.00182
3710.79005,3278.35817
3712.34439,3279.71452
3713.89873,3278.35817
3715.45307,3278.35817
3717.00741,3277.00182
3718.56174,3277.00182
3720.11608,3278.35817
3721.67042,3279.71452
3723.22476,3279.71452
3724.7791,3279.71452
3726.33344,3279.71452
3727.88778,3279.71452
3729.44212,3279.71452
3730.99645,3279.71452
3732.55079,3279.71452
3734.10513,3279.71452
3735.65947,3278.35817
3737.21381,3278.35817
3738.76815,3278.35817
3740.32249,3278.35817
3741.87683,3279.71452
3743.43116,3281.07087
3744.9855,3282.42721
3746.53984,3283.78356
3748.09418,3282.42721
3749.64852,3282.42721
3751.20286,3282.42721
3752.7572,3282.42721
3754.31154,3282.42721
3755.86587,3281.07087
3757.42021,3279.71452
3758.97455,3279.71452
3760.52889,3281.07087
3762.08323,3282.42721
3763.63757,3281.07087
3765.19191,3279.71452
3766.74625,3278.35817
3768.30058,3278.35817
3769.85492,3278.35817
3771.40926,3279.71452
3772.9636,3281.07087
3774.51794,3282.42721
3776.07228,3282.42721
3777.62662,3281.07087
3777.62662,3279.71452
3779.18096,3278.35817
3780.7353,3278.35817
3782.28963,3278.35817
3783.84397,3278.35817
3783.84397,3277.00182
3785.39831,3278.35817
3786.95265,3278.35817
3788.50699,3278.35817
3790.06133,3277.00182
3791.61567,3275.64548
3793.17001,3274.28913
3794.72434,3272.93278
3796.27868,3272.93278
3797.83302,3272.93278
3799.38736,3272.93278
3800.9417,3272.93278
3802.49604,3271.57643
3804.05038,3270.22008
3805.60472,3268.86374
3807.15905,3268.86374
3808.71339,3270.22008
3810.26773,3270.22008
3811.82207,3270.22008
3813.37641,3270.22008
3814.93075,3270.22008
3816.48509,3270.22008
3818.03943,3271.57643
3819.59376,3271.57643
3821.1481,3272.93278
3822.70244,3272.93278
3824.25678,3271.57643
3825.81112,3271.57643
3827.36546,3271.57643
3828.9198,3270.22008
3830.47414,3268.86374
3832.02848,3268.86374
3833.58281,3268.86374
3835.13715,3268.86374
3836.69149,3270.22008
3838.24583,3271.57643
3839.80017,3271.57643
3841.35451,3271.57643
3842.90885,3270.22008
3844.46319,3268.86374
3846.01752,3267.50739
3847.57186,3267.50739
3849.1262,3267.50739
3849.1262,3266.15104
3849.1262,3264.79469
3849.1262,3263.43835
3850.68054,3263.43835
3852.23488,3263.43835
3852.23488,3262.082
3853.78922,3262.082
3855.34356,3262.082
3856.8979,3260.72565
3858.45223,3260.72565
3860.00657,3260.72565
3861.56091,3260.72565
3863.11525,3260.72565
3864.66959,3262.082
3864.66959,3263.43835
3864.66959,3264.79469
3866.22393,3266.15104
3867.77827,3266.15104
3867.77827,3267.50739
3869.33261,3266.15104
3870.88694,3264.79469
3872.44128,3264.79469
3873.99562,3264.79469
3875.54996,3264.79469
3877.1043,3263.43835
3878.65864,3263.43835
3880.21298,3264.79469
3881.76732,3266.15104
3883.32165,3267.50739
3884.87599,3266.15104
3886.43033,3264.79469
3887.98467,3264.79469
3889.53901,3266.15104
3891.09335,3267.50739
3891.09335,3268.86374
3892.64769,3268.86374
3894.20203,3267.50739
3895.75637,3266.15104
3897.3107,3266.15104
3898.86504,3266.15104
3900.41938,3266.15104
3901.97372,3267.50739
3903.52806,3268.86374
3905.0824,3268.86374
3906.63674,3268.86374
3908.19108,3268.86374
3909.74541,3268.86374
3911.29975,3267.50739
3912.85409,3266.15104
3914.40843,3266.15104
3915.96277,3266.15104
3917.51711,3264.79469
3919.07145,3266.15104
3920.62579,3267.50739
3922.18012,3267.50739
3923.73446,3267.50739
3925.2888,3268.86374
3926.84314,3267.50739
3928.39748,3267.50739
3929.95182,3266.15104
3931.50616,3264.79469
3933.0605,3263.43835
3934.61483,3262.082
3936.16917,3262.082
3937.72351,3262.082
3939.27785,3263.43835
3939.27785,3264.79469
3939.27785,3266.15104
3940.83219,3267.50739
3942.38653,3267.50739
3943.94087,3267.50739
3945.49521,3267.50739
3947.04955,3267.50739
3947.04955,3268.86374
3947.04955,3270.22008
3948.60388,3270.22008
3948.60388,3271.57643
3948.60388,3272.93278
3950.15822,3271.57643
3951.71256,3270.22008
3953.2669,3268.86374
3954.82124,3268.86374
3956.37558,3268.86374
3957.92992,3268.86374
3959.48426,3268.86374
3961.03859,3267.50739
3962.59293,3268.86374
3964.14727,3267.50739
3965.70161,3266.15104
3967.25595,3266.15104
3968.81029,3266.15104
3970.36463,3266.15104
3971.91897,3266.15104
3973.4733,3267.50739
3975.02764,3268.86374
3976.58198,3267.50739
3978.13632,3266.15104
3979.69066,3267.50739
3981.245,3268.86374
3982.79934,3270.22008
3984.35368,3271.57643
3985.90801,3271.57643
3987.46235,3271.57643
3989.01669,3271.57643
3990.57103,3270.22008
3992.12537,3271.57643
3993.67971,3271.57643
3995.23405,3271.57643
3996.78839,3271.57643
3998.34272,3271.57643
3999.89706,3271.57643
4001.4514,3271.57643
4003.00574,3270.22008
4004.56008,3271.57643
4006.11442,3272.93278
