Raman shift,Intensity
412.98604,782.20904
414.6018,784.84033
416.21755,788.12946
417.83331,791.41858
419.44906,795.36553
419.44906,795.36553
421.06482,796.68117
421.06482,798.65465
422.68058,803.25942
422.68058,798.65465
424.29633,807.20637
424.29633,800.62812
425.91209,802.60159
425.91209,811.15331
427.52784,815.10026
429.1436,819.70503
430.75935,823.65198
432.37511,826.9411
433.99087,830.23022
435.60662,833.51934
437.22238,836.80846
438.83813,839.43976
440.45389,842.07106
442.06964,844.04453
443.6854,846.01801
445.30116,848.6493
446.91691,850.62278
448.53267,852.59625
450.14842,855.22755
451.76418,857.20102
453.37993,858.51667
454.99569,859.83232
456.61145,861.14797
458.2272,861.80579
459.84296,861.80579
461.45871,861.14797
463.07447,860.49014
464.69023,859.1745
466.30598,857.20102
467.92174,854.56972
469.53749,853.25408
471.15325,849.96495
472.769,846.01801
474.38476,842.07106
476.00052,830.23022
476.00052,838.78194
477.61627,835.49282
477.61627,828.91457
479.23203,826.28327
479.23203,831.54587
480.84778,824.3098
480.84778,827.59892
482.46354,823.65198
482.46354,822.33633
484.07929,819.70503
484.07929,819.70503
485.69505,816.41591
487.31081,813.78461
488.92656,809.83766
490.54232,807.20637
490.54232,802.60159
490.54232,802.60159
492.15807,801.28595
492.15807,804.57507
493.77383,802.60159
493.77383,800.62812
495.38959,799.31247
495.38959,799.9703
497.00534,797.339
497.00534,797.339
498.6211,794.7077
498.6211,794.7077
500.23685,792.73423
500.23685,792.73423
501.85261,790.10293
501.85261,790.10293
503.46836,787.47163
503.46836,787.47163
505.08412,785.49816
505.08412,785.49816
506.69988,784.18251
506.69988,784.18251
508.31563,782.20904
508.31563,782.20904
509.93139,780.89339
509.93139,780.89339
511.54714,780.23556
511.54714,780.23556
513.1629,780.23556
513.1629,780.23556
514.77865,780.23556
514.77865,780.23556
516.39441,779.57774
516.39441,779.57774
518.01017,779.57774
518.01017,779.57774
519.62592,779.57774
519.62592,779.57774
521.24168,779.57774
521.24168,779.57774
522.85743,779.57774
522.85743,779.57774
524.47319,779.57774
524.47319,779.57774
526.08894,779.57774
526.08894,779.57774
527.7047,779.57774
527.7047,779.57774
529.32046,779.57774
529.32046,779.57774
530.93621,779.57774
530.93621,779.57774
532.55197,779.57774
532.55197,779.57774
534.16772,779.57774
534.16772,779.57774
535.78348,779.57774
535.78348,779.57774
537.39924,779.57774
537.39924,779.57774
539.01499,779.57774
539.01499,779.57774
540.63075,779.57774
540.63075,779.57774
542.2465,779.57774
542.2465,779.57774
543.86226,779.57774
543.86226,779.57774
545.47801,779.57774
545.47801,779.57774
547.09377,779.57774
547.09377,779.57774
548.70953,780.23556
548.70953,780.23556
550.32528,780.89339
550.32528,780.89339
551.94104,781.55121
553.55679,782.20904
555.17255,783.52469
556.7883,783.52469
558.40406,784.84033
560.01982,784.84033
561.63557,784.84033
563.25133,784.18251
564.86708,784.18251
566.48284,783.52469
568.0986,783.52469
569.71435,783.52469
571.33011,784.18251
572.94586,784.84033
574.56162,785.49816
576.17737,786.15598
577.79313,786.81381
579.40889,787.47163
581.02464,786.81381
582.6404,786.81381
584.25615,785.49816
585.87191,784.84033
587.48766,783.52469
589.10342,782.20904
590.71918,779.57774
592.33493,777.60427
593.95069,775.63079
595.56644,772.34167
597.1822,769.71037
598.79795,767.7369
600.41371,765.1056
626.70319,773.53906
653.51634,774.99421
676.7544,770.87129
693.43813,774.99421
696.41737,772.32644
716.67619,769.65866
726.20976,769.65866
742.89349,766.74836
755.52627,763.78995
755.52627,766.42125
755.52627,764.44778
755.52627,765.1056
755.52627,765.76343
757.14202,767.07907
758.75778,767.7369
760.37353,769.05255
760.37353,774.31514
760.37353,769.71037
760.37353,770.3682
760.37353,768.39472
761.98929,784.84033
761.98929,785.49816
761.98929,778.26209
761.98929,771.68385
761.98929,771.02602
761.98929,775.63079
761.98929,774.97297
761.98929,773.65732
761.98929,772.99949
761.98929,772.34167
763.60504,777.60427
763.60504,784.18251
763.60504,776.28862
763.60504,778.91991
763.60504,776.94644
763.60504,785.49816
765.2208,783.52469
765.2208,785.49816
765.2208,780.89339
765.2208,779.57774
765.2208,780.23556
765.2208,782.20904
765.2208,781.55121
766.83656,785.49816
766.83656,782.86686
768.45231,785.49816
770.06807,785.49816
770.06807,786.81381
770.06807,786.15598
771.68382,787.47163
771.68382,786.81381
773.29958,787.47163
773.29958,788.12946
773.29958,788.78728
774.91533,788.78728
776.53109,791.41858
776.53109,790.76075
776.53109,790.10293
776.53109,792.73423
776.53109,792.0764
776.53109,789.44511
778.14685,793.39205
778.14685,792.73423
779.7626,794.04988
781.37836,794.04988
782.99411,794.7077
782.99411,794.04988
784.60987,794.7077
784.60987,795.36553
786.22563,796.68117
786.22563,796.02335
792.68865,792.73423
792.68865,792.0764
792.68865,793.39205
792.68865,789.44511
792.68865,790.10293
794.3044,788.78728
794.3044,788.12946
794.3044,787.47163
794.3044,791.41858
794.3044,790.76075
795.92016,786.81381
797.53592,784.18251
797.53592,786.15598
797.53592,785.49816
797.53592,784.84033
799.15167,783.52469
799.15167,782.86686
800.76743,782.20904
800.76743,780.89339
800.76743,781.55121
802.38318,780.23556
802.38318,779.57774
803.99894,778.26209
803.99894,778.91991
803.99894,777.60427
805.61469,776.94644
805.61469,769.05255
805.61469,768.39472
805.61469,767.07907
805.61469,769.71037
807.23045,766.42125
807.23045,765.76343
807.23045,765.1056
807.23045,770.3682
807.23045,774.97297
807.23045,775.63079
807.23045,776.28862
807.23045,764.44778
807.23045,767.7369
808.84621,771.68385
808.84621,771.02602
808.84621,774.31514
808.84621,773.65732
808.84621,772.99949
808.84621,763.13213
808.84621,763.78995
810.46196,772.34167
810.46196,762.4743
810.46196,761.81648
810.46196,763.13213
812.07772,758.52736
812.07772,759.18518
812.07772,761.15865
813.69347,757.86953
813.69347,761.15865
813.69347,759.84301
815.30923,755.23823
815.30923,756.55388
815.30923,757.21171
815.30923,760.50083
815.30923,761.15865
815.30923,755.89606
816.92498,755.23823
816.92498,756.55388
816.92498,755.89606
818.54074,757.21171
818.54074,760.50083
818.54074,761.15865
820.1565,761.15865
820.1565,757.86953
820.1565,758.52736
820.1565,759.84301
821.77225,761.15865
821.77225,759.18518
823.38801,762.4743
823.38801,763.13213
823.38801,763.78995
823.38801,764.44778
823.38801,765.1056
823.38801,765.76343
823.38801,766.42125
823.38801,767.07907
823.38801,767.7369
823.38801,768.39472
823.38801,761.81648
825.00376,769.05255
825.00376,768.39472
826.61952,769.05255
828.23528,769.05255
829.85103,769.05255
831.46679,769.05255
833.08254,769.05255
834.6983,770.3682
834.6983,771.02602
834.6983,771.68385
834.6983,769.71037
836.31405,771.68385
836.31405,772.34167
837.92981,772.34167
837.92981,773.65732
837.92981,774.31514
837.92981,772.99949
839.54557,774.97297
839.54557,774.31514
841.16132,774.97297
841.16132,775.63079
842.77708,775.63079
844.39283,775.63079
846.00859,776.28862
846.00859,778.91991
846.00859,775.63079
846.00859,778.26209
846.00859,779.57774
846.00859,777.60427
846.00859,776.94644
847.62434,780.23556
849.2401,780.23556
850.85586,780.23556
852.47161,780.23556
854.08737,779.57774
855.70312,780.23556
857.31888,779.57774
858.93464,778.91991
860.55039,778.91991
862.16615,778.91991
863.7819,779.57774
865.39766,780.23556
867.01341,780.89339
868.62917,780.89339
870.24493,780.89339
870.24493,780.23556
871.86068,780.23556
871.86068,778.26209
871.86068,777.60427
871.86068,776.94644
871.86068,776.28862
871.86068,778.91991
871.86068,779.57774
871.86068,775.63079
873.47644,774.97297
873.47644,775.63079
875.09219,774.97297
876.70795,774.97297
878.3237,774.97297
879.93946,774.97297
879.93946,774.31514
879.93946,773.65732
881.55522,772.99949
881.55522,772.34167
883.17097,772.34167
883.17097,771.68385
883.17097,770.3682
883.17097,771.02602
883.17097,767.07907
884.78673,770.3682
884.78673,769.71037
884.78673,769.05255
884.78673,767.07907
884.78673,767.7369
886.40248,768.39472
886.40248,767.07907
888.01824,767.07907
888.01824,766.42125
889.63399,766.42125
889.63399,765.1056
889.63399,765.76343
891.24975,764.44778
891.24975,765.1056
892.86551,763.78995
892.86551,764.44778
892.86551,763.13213
894.48126,763.13213
894.48126,762.4743
894.48126,761.81648
894.48126,761.15865
894.48126,760.50083
896.09702,760.50083
897.71277,760.50083
899.32853,760.50083
900.94429,760.50083
902.56004,758.52736
902.56004,757.86953
902.56004,757.21171
902.56004,756.55388
902.56004,759.84301
902.56004,759.18518
904.1758,756.55388
905.79155,755.89606
907.40731,755.89606
909.02306,756.55388
910.63882,757.21171
912.25458,757.86953
913.87033,758.52736
913.87033,759.18518
915.48609,759.18518
915.48609,759.84301
917.10184,759.84301
918.7176,759.18518
920.33335,758.52736
921.94911,759.18518
921.94911,758.52736
923.56487,758.52736
923.56487,757.86953
925.18062,757.86953
925.18062,757.21171
926.79638,757.21171
926.79638,757.21171
928.41213,757.21171
928.41213,759.18518
928.41213,757.86953
928.41213,758.52736
930.02789,760.50083
930.02789,757.86953
930.02789,759.84301
930.02789,759.18518
931.64365,761.15865
931.64365,759.18518
931.64365,761.81648
931.64365,760.50083
933.2594,763.13213
933.2594,760.50083
933.2594,762.4743
934.87516,763.13213
934.87516,763.78995
934.87516,761.81648
936.49091,763.78995
936.49091,762.4743
938.10667,763.78995
938.10667,763.78995
939.72242,763.78995
939.72242,763.78995
941.33818,763.13213
941.33818,763.78995
942.95394,763.13213
942.95394,762.4743
944.56969,761.81648
944.56969,762.4743
946.18545,762.4743
946.18545,762.4743
947.8012,761.81648
947.8012,761.81648
949.41696,761.15865
949.41696,761.81648
951.03271,762.4743
951.03271,763.13213
951.03271,763.78995
951.03271,761.15865
951.03271,762.4743
951.03271,761.81648
952.64847,763.13213
952.64847,764.44778
952.64847,765.1056
954.26423,765.1056
954.26423,763.78995
955.87998,764.44778
955.87998,765.76343
957.49574,765.1056
957.49574,765.76343
959.11149,765.76343
959.11149,765.76343
960.72725,765.76343
960.72725,766.42125
960.72725,766.42125
962.343,767.07907
962.343,766.42125
963.95876,767.7369
963.95876,767.07907
965.57452,767.07907
965.57452,768.39472
967.19027,767.07907
967.19027,768.39472
968.80603,767.7369
968.80603,769.71037
968.80603,767.07907
970.42178,768.39472
970.42178,770.3682
970.42178,770.3682
970.42178,769.71037
970.42178,769.05255
970.42178,771.68385
970.42178,771.02602
972.03754,772.34167
972.03754,771.02602
972.03754,772.99949
973.6533,772.99949
973.6533,772.34167
975.26905,772.99949
975.26905,773.65732
975.26905,772.99949
976.88481,772.99949
976.88481,773.65732
976.88481,774.31514
978.50056,774.97297
978.50056,772.99949
978.50056,775.63079
980.11632,771.68385
981.73207,769.71037
983.34783,768.39472
984.96359,765.76343
986.57934,764.44778
988.1951,763.13213
989.81085,761.81648
991.42661,761.81648
993.04236,762.4743
994.65812,763.13213
996.27388,764.44778
997.88963,765.76343
999.50539,767.07907
1001.12114,767.7369
1002.7369,769.71037
1004.35266,771.68385
1005.96841,772.99949
1007.58417,774.97297
1009.19992,776.28862
1010.81568,777.60427
1012.43143,778.91991
1014.04719,780.23556
1015.66295,781.55121
1017.2787,782.20904
1018.89446,782.20904
1020.51021,781.55121
1022.12597,780.89339
1023.74172,779.57774
1025.35748,778.26209
1026.97324,777.60427
1028.58899,777.60427
1030.20475,779.57774
1031.8205,780.89339
1033.43626,782.86686
1035.05201,785.49816
1036.66777,787.47163
1038.28353,789.44511
1039.89928,790.76075
1041.51504,792.73423
1043.13079,794.04988
1044.74655,794.04988
1046.36231,794.7077
1047.97806,794.04988
1049.59382,792.73423
1051.20957,792.0764
1052.82533,790.10293
1054.44108,788.12946
1054.44108,788.78728
1054.44108,789.44511
1054.44108,786.81381
1056.05684,785.49816
1056.05684,790.10293
1056.05684,787.47163
1056.05684,788.12946
1056.05684,786.15598
1056.05684,781.55121
1057.6726,779.57774
1057.6726,782.86686
1057.6726,785.49816
1057.6726,782.20904
1057.6726,778.91991
1057.6726,790.76075
1057.6726,780.89339
1059.28835,780.23556
1059.28835,784.84033
1059.28835,782.86686
1059.28835,778.26209
1059.28835,777.60427
1059.28835,774.31514
1059.28835,774.97297
1059.28835,780.23556
1060.90411,776.94644
1060.90411,772.99949
1060.90411,784.18251
1060.90411,783.52469
1060.90411,777.60427
1060.90411,772.34167
1060.90411,771.68385
1060.90411,773.65732
1060.90411,775.63079
1062.51986,775.63079
1062.51986,769.71037
1062.51986,770.3682
1062.51986,776.28862
1062.51986,771.02602
1064.13562,767.7369
1064.13562,766.42125
1064.13562,767.07907
1064.13562,772.34167
1064.13562,769.05255
1065.75137,769.71037
1065.75137,765.76343
1065.75137,765.1056
1065.75137,768.39472
1067.36713,767.7369
1067.36713,764.44778
1068.98289,762.4743
1068.98289,761.81648
1068.98289,763.78995
1068.98289,763.13213
1068.98289,766.42125
1070.59864,766.42125
1072.2144,767.7369
1073.83015,769.05255
1075.44591,771.02602
1077.06167,772.34167
1078.67742,773.65732
1080.29318,774.31514
1081.90893,774.97297
1083.52469,774.97297
1085.14044,774.31514
1086.7562,773.65732
1088.37196,772.34167
1089.98771,772.34167
1091.60347,771.02602
1093.21922,770.3682
1094.83498,769.05255
1096.45073,768.39472
1098.06649,767.07907
1099.68225,766.42125
1101.298,765.76343
1102.91376,764.44778
1104.52951,763.78995
1106.14527,763.13213
1107.76102,763.13213
1109.37678,763.13213
1110.99254,764.44778
1112.60829,765.76343
1114.22405,767.07907
1115.8398,768.39472
1117.45556,769.71037
1119.07132,771.02602
1119.07132,772.99949
1119.07132,772.34167
1119.07132,771.68385
1120.68707,771.02602
1120.68707,771.68385
1120.68707,771.02602
1122.30283,771.02602
1122.30283,771.02602
1123.91858,770.3682
1123.91858,771.02602
1125.53434,769.71037
1125.53434,770.3682
1125.53434,771.02602
1127.15009,770.3682
1127.15009,769.05255
1127.15009,769.71037
1128.76585,769.05255
1128.76585,769.71037
1130.38161,769.71037
1130.38161,768.39472
1131.99736,768.39472
1131.99736,767.7369
1131.99736,769.05255
1133.61312,767.07907
1133.61312,768.39472
1135.22887,768.39472
1135.22887,767.07907
1135.22887,766.42125
1135.22887,765.76343
1135.22887,765.1056
1135.22887,766.42125
1135.22887,767.7369
1136.84463,766.42125
1136.84463,765.1056
1138.46038,765.76343
1138.46038,765.1056
1140.07614,765.76343
1140.07614,765.76343
1141.6919,765.76343
1141.6919,766.42125
1143.30765,765.76343
1143.30765,765.76343
1144.92341,766.42125
1144.92341,765.1056
1146.53916,765.76343
1146.53916,765.1056
1146.53916,767.07907
1148.15492,766.42125
1148.15492,765.76343
1148.15492,768.39472
1148.15492,767.07907
1149.77068,767.07907
1149.77068,769.05255
1151.38643,767.07907
1151.38643,769.71037
1151.38643,767.7369
1153.00219,769.05255
1153.00219,767.7369
1153.00219,771.02602
1153.00219,771.02602
1153.00219,769.71037
1153.00219,768.39472
1153.00219,770.3682
1154.61794,771.68385
1154.61794,772.99949
1156.2337,772.34167
1156.2337,774.31514
1156.2337,771.68385
1157.84945,776.28862
1157.84945,773.65732
1157.84945,775.63079
1157.84945,774.97297
1157.84945,774.31514
1157.84945,775.63079
1157.84945,772.99949
1157.84945,772.34167
1159.46521,776.94644
1159.46521,776.28862
1161.08097,776.94644
1161.08097,776.94644
1162.69672,776.28862
1162.69672,776.94644
1164.31248,776.94644
1164.31248,776.28862
1165.92823,776.28862
1165.92823,774.97297
1165.92823,775.63079
1165.92823,775.63079
1165.92823,774.31514
1167.54399,774.31514
1167.54399,773.65732
1167.54399,775.63079
1169.15974,774.97297
1169.15974,772.34167
1169.15974,772.99949
1169.15974,773.65732
1170.7755,772.34167
1170.7755,773.65732
1170.7755,771.68385
1170.7755,773.65732
1172.39126,772.99949
1172.39126,772.99949
1172.39126,771.68385
1172.39126,771.02602
1174.00701,771.68385
1174.00701,771.68385
1174.00701,771.02602
1175.62277,771.02602
1175.62277,771.02602
1175.62277,771.02602
1177.23852,769.71037
1177.23852,769.71037
1177.23852,771.02602
1178.85428,770.3682
1178.85428,771.02602
1178.85428,768.39472
1178.85428,768.39472
1180.47003,770.3682
1180.47003,767.07907
1180.47003,769.71037
1180.47003,767.07907
1180.47003,769.05255
1182.08579,768.39472
1182.08579,765.76343
1182.08579,765.76343
1182.08579,767.07907
1182.08579,769.05255
1182.08579,767.7369
1182.08579,766.42125
1182.08579,765.76343
1183.70155,763.78995
1183.70155,763.78995
1183.70155,765.76343
1185.3173,763.13213
1185.3173,761.15865
1185.3173,762.4743
1185.3173,761.81648
1185.3173,762.4743
1185.3173,763.13213
1185.3173,763.78995
1185.3173,764.44778
1185.3173,765.1056
1185.3173,765.76343
1185.3173,760.50083
1186.93306,761.15865
1186.93306,762.4743
1186.93306,759.84301
1188.54881,758.52736
1188.54881,757.86953
1188.54881,760.50083
1188.54881,761.15865
1188.54881,759.84301
1190.16457,759.84301
1190.16457,759.18518
1190.16457,761.15865
1190.16457,759.84301
1191.78033,759.18518
1191.78033,760.50083
1191.78033,761.15865
1191.78033,759.84301
1191.78033,760.50083
1193.39608,761.81648
1193.39608,761.15865
1193.39608,761.15865
1193.39608,762.4743
1193.39608,759.84301
1193.39608,760.50083
1195.01184,759.84301
1195.01184,761.81648
1195.01184,763.13213
1195.01184,761.15865
1196.62759,761.15865
1196.62759,763.13213
1196.62759,760.50083
1196.62759,761.81648
1196.62759,763.78995
1196.62759,761.81648
1198.24335,761.15865
1198.24335,763.13213
1198.24335,763.13213
1198.24335,761.81648
1198.24335,765.1056
1198.24335,764.44778
1198.24335,763.78995
1199.8591,763.78995
1199.8591,762.4743
1199.8591,763.13213
1199.8591,763.78995
1199.8591,761.81648
1199.8591,765.1056
1201.47486,764.44778
1201.47486,764.44778
1201.47486,763.13213
1201.47486,765.1056
1201.47486,765.76343
1201.47486,766.42125
1203.09062,767.7369
1203.09062,763.78995
1203.09062,763.13213
1203.09062,765.76343
1203.09062,765.76343
1203.09062,767.07907
1203.09062,766.42125
1203.09062,764.44778
1203.09062,765.76343
1203.09062,765.1056
1204.70637,768.39472
1204.70637,765.76343
1204.70637,767.07907
1204.70637,766.42125
1204.70637,766.42125
1204.70637,767.7369
1204.70637,766.42125
1206.32213,767.7369
1206.32213,767.7369
1206.32213,768.39472
1206.32213,769.05255
1206.32213,767.07907
1207.93788,768.39472
1207.93788,769.05255
1207.93788,767.07907
1207.93788,768.39472
1207.93788,769.71037
1209.55364,769.05255
1209.55364,769.71037
1209.55364,769.05255
1209.55364,770.3682
1209.55364,767.7369
1209.55364,767.07907
1211.16939,769.05255
1211.16939,769.05255
1211.16939,770.3682
1211.16939,767.7369
1211.16939,768.39472
1212.78515,768.39472
1212.78515,769.71037
1212.78515,769.71037
1212.78515,771.02602
1212.78515,770.3682
1214.40091,771.02602
1214.40091,769.05255
1214.40091,769.71037
1214.40091,769.71037
1214.40091,769.71037
1214.40091,768.39472
1214.40091,770.3682
1216.01666,770.3682
1216.01666,770.3682
1216.01666,771.68385
1217.63242,770.3682
1217.63242,771.68385
1217.63242,770.3682
1219.24817,771.02602
1219.24817,771.02602
1219.24817,771.02602
1220.86393,771.02602
1220.86393,770.3682
1220.86393,771.02602
1222.47969,769.71037
1222.47969,771.02602
1222.47969,771.02602
1224.09544,769.71037
1224.09544,771.02602
1224.09544,771.02602
1225.7112,771.02602
1225.7112,771.02602
1225.7112,770.3682
1227.32695,771.02602
1227.32695,771.02602
1227.32695,771.02602
1228.94271,771.02602
1228.94271,771.02602
1228.94271,771.68385
1230.55846,770.3682
1230.55846,771.02602
1230.55846,770.3682
1230.55846,771.68385
1232.17422,771.02602
1232.17422,770.3682
1232.17422,770.3682
1233.78998,769.71037
1233.78998,771.02602
1233.78998,769.71037
1235.40573,770.3682
1235.40573,769.71037
1235.40573,767.7369
1235.40573,769.05255
1235.40573,768.39472
1235.40573,769.05255
1235.40573,769.05255
1237.02149,768.39472
1237.02149,768.39472
1237.02149,767.7369
1238.63724,767.7369
1238.63724,768.39472
1238.63724,768.39472
1240.253,768.39472
1240.253,768.39472
1240.253,768.39472
1241.86875,768.39472
1241.86875,769.05255
1241.86875,768.39472
1243.48451,768.39472
1243.48451,769.05255
1245.10027,769.05255
1245.10027,767.7369
1245.10027,768.39472
1246.71602,769.05255
1246.71602,768.39472
1246.71602,769.71037
1248.33178,771.68385
1248.33178,772.34167
1248.33178,772.99949
1248.33178,769.05255
1248.33178,770.3682
1248.33178,771.02602
1248.33178,771.02602
1248.33178,769.71037
1249.94753,772.99949
1249.94753,773.65732
1249.94753,774.31514
1249.94753,771.68385
1251.56329,772.99949
1251.56329,774.31514
1251.56329,774.97297
1251.56329,775.63079
1253.17904,773.65732
1253.17904,776.94644
1253.17904,775.63079
1253.17904,776.28862
1254.7948,777.60427
1254.7948,778.26209
1254.7948,775.63079
1256.41056,776.94644
1256.41056,778.91991
1258.02631,779.57774
1258.02631,778.26209
1258.02631,780.23556
1259.64207,781.55121
1259.64207,780.89339
1259.64207,780.23556
1261.25782,782.20904
1261.25782,784.18251
1261.25782,784.84033
1261.25782,783.52469
1261.25782,781.55121
1262.87358,782.86686
1262.87358,784.18251
1262.87358,785.49816
1262.87358,787.47163
1264.48934,786.15598
1264.48934,788.12946
1264.48934,785.49816
1264.48934,788.78728
1264.48934,786.81381
1266.10509,788.78728
1266.10509,789.44511
1266.10509,786.81381
1267.72085,789.44511
1267.72085,788.12946
1267.72085,790.10293
1269.3366,790.10293
1269.3366,790.76075
1269.3366,789.44511
1269.3366,791.41858
1270.95236,791.41858
1270.95236,790.10293
1272.56811,792.0764
1272.56811,791.41858
1274.18387,792.0764
1274.18387,792.0764
1275.79963,791.41858
1275.79963,792.0764
1277.41538,792.73423
1277.41538,790.76075
1277.41538,793.39205
1279.03114,790.10293
1280.64689,788.78728
1282.26265,786.81381
1283.8784,784.84033
1285.49416,783.52469
1287.10992,782.20904
1288.72567,781.55121
1290.34143,781.55121
1291.95718,782.20904
1293.57294,782.86686
1295.1887,783.52469
1296.80445,784.18251
1298.42021,784.18251
1300.03596,784.18251
1301.65172,783.52469
1303.26747,782.86686
1304.88323,782.86686
1306.49899,782.86686
1308.11474,782.86686
1309.7305,782.86686
1311.34625,783.52469
1312.96201,784.18251
1314.57776,784.18251
1316.19352,784.84033
1317.80928,784.18251
1319.42503,783.52469
1321.04079,782.20904
1322.65654,781.55121
1324.2723,780.89339
1325.88805,780.23556
1327.50381,780.23556
1329.11957,780.23556
1330.73532,781.55121
1332.35108,782.20904
1333.96683,783.52469
1335.58259,784.18251
1337.19835,785.49816
1338.8141,786.81381
1340.42986,787.47163
1342.04561,788.78728
1343.66137,789.44511
1345.27712,790.76075
1346.89288,790.76075
1348.50864,791.41858
1350.12439,790.76075
1351.74015,790.10293
1353.3559,789.44511
1354.97166,788.78728
1356.58741,787.47163
1358.20317,786.15598
1359.81893,784.84033
1361.43468,783.52469
1363.05044,781.55121
1364.66619,780.23556
1366.28195,779.57774
1367.89771,778.91991
1369.51346,778.91991
1371.12922,778.91991
1372.74497,779.57774
1374.36073,779.57774
1375.97648,780.23556
1377.59224,780.89339
1379.208,781.55121
1380.82375,782.20904
1382.43951,782.20904
1384.05526,782.86686
1385.67102,783.52469
1387.28677,783.52469
1388.90253,782.86686
1390.51829,782.86686
1392.13404,782.20904
1393.7498,781.55121
1395.36555,780.23556
1396.98131,778.91991
1398.59706,778.26209
1400.21282,776.28862
1401.82858,774.97297
1403.44433,773.65732
1405.06009,772.34167
1406.67584,771.68385
1408.2916,771.02602
1409.90736,771.02602
1411.52311,771.68385
1413.13887,771.68385
1414.75462,771.68385
1416.37038,772.34167
1417.98613,772.34167
1419.60189,772.99949
1421.21765,773.65732
1422.8334,774.31514
1424.44916,774.97297
1426.06491,775.63079
1427.68067,776.28862
1429.29642,777.60427
1430.91218,778.26209
1432.52794,779.57774
1434.14369,780.23556
1435.75945,780.89339
1437.3752,782.20904
1438.99096,782.86686
1440.60672,782.86686
1442.22247,783.52469
1443.83823,782.86686
1445.45398,782.20904
1447.06974,781.55121
1448.68549,780.23556
1450.30125,779.57774
1451.91701,778.26209
1453.53276,777.60427
1455.14852,776.94644
1456.76427,776.94644
1458.38003,776.94644
1459.99578,776.28862
1461.61154,776.28862
1463.2273,776.28862
1464.84305,776.28862
1466.45881,775.63079
1468.07456,774.97297
1469.69032,774.97297
1471.30607,774.97297
1472.92183,776.28862
1472.92183,772.99949
1472.92183,773.65732
1474.53759,773.65732
1474.53759,778.91991
1474.53759,772.34167
1474.53759,774.97297
1474.53759,774.31514
1474.53759,772.99949
1476.15334,772.99949
1476.15334,775.63079
1476.15334,774.31514
1476.15334,774.97297
1476.15334,786.15598
1476.15334,776.94644
1476.15334,776.28862
1476.15334,778.26209
1476.15334,786.81381
1476.15334,780.89339
1476.15334,777.60427
1477.7691,775.63079
1477.7691,788.12946
1477.7691,789.44511
1477.7691,788.78728
1477.7691,790.10293
1477.7691,778.91991
1477.7691,776.28862
1477.7691,780.23556
1477.7691,780.89339
1477.7691,782.86686
1477.7691,781.55121
1477.7691,784.18251
1477.7691,787.47163
1477.7691,778.26209
1477.7691,783.52469
1477.7691,782.20904
1477.7691,776.94644
1477.7691,784.18251
1477.7691,777.60427
1477.7691,785.49816
1477.7691,790.76075
1477.7691,779.57774
1479.38485,791.41858
1479.38485,780.89339
1479.38485,780.23556
1479.38485,779.57774
1479.38485,778.91991
1479.38485,796.02335
1479.38485,792.0764
1479.38485,781.55121
1479.38485,784.18251
1479.38485,782.20904
1479.38485,795.36553
1479.38485,794.7077
1479.38485,782.86686
1479.38485,784.84033
1479.38485,787.47163
1479.38485,783.52469
1479.38485,792.73423
1479.38485,794.04988
1481.00061,797.339
1481.00061,784.84033
1481.00061,793.39205
1481.00061,785.49816
1481.00061,797.99682
1481.00061,796.02335
1481.00061,790.76075
1481.00061,796.68117
1481.00061,787.47163
1482.61637,789.44511
1482.61637,788.12946
1482.61637,795.36553
1482.61637,793.39205
1482.61637,786.15598
1482.61637,786.81381
1482.61637,798.65465
1482.61637,788.78728
1482.61637,790.10293
1482.61637,792.73423
1484.23212,794.7077
1484.23212,792.0764
1484.23212,798.65465
1484.23212,796.02335
1484.23212,790.76075
1484.23212,791.41858
1484.23212,794.04988
1484.23212,792.73423
1485.84788,798.65465
1485.84788,798.65465
1487.46363,798.65465
1487.46363,800.62812
1489.07939,800.62812
1489.07939,798.65465
1489.07939,799.31247
1489.07939,799.9703
1489.07939,801.28595
1489.07939,801.94377
1489.07939,802.60159
1489.07939,803.25942
1489.07939,803.91724
1490.69514,804.57507
1492.3109,806.54854
1492.3109,804.57507
1492.3109,805.23289
1493.92666,805.89072
1510.08421,776.94644
1511.69997,777.60427
1511.69997,776.28862
1511.69997,774.97297
1511.69997,775.63079
1511.69997,774.31514
1511.69997,773.65732
1513.31573,782.20904
1513.31573,780.89339
1513.31573,781.55121
1513.31573,778.26209
1514.93148,780.23556
1514.93148,778.91991
1514.93148,782.86686
1516.54724,794.7077
1516.54724,797.339
1516.54724,796.68117
1516.54724,795.36553
1516.54724,796.02335
1516.54724,794.04988
1516.54724,793.39205
1516.54724,783.52469
1516.54724,792.73423
1516.54724,779.57774
1518.16299,801.94377
1518.16299,792.0764
1518.16299,789.44511
1518.16299,784.18251
1518.16299,784.84033
1518.16299,787.47163
1518.16299,786.81381
1518.16299,805.23289
1518.16299,786.15598
1518.16299,785.49816
1518.16299,797.99682
1518.16299,804.57507
1518.16299,802.60159
1518.16299,799.9703
1518.16299,800.62812
1518.16299,801.28595
1518.16299,803.25942
1519.77875,790.76075
1519.77875,788.12946
1519.77875,788.78728
1519.77875,803.91724
1519.77875,791.41858
1519.77875,799.31247
1519.77875,790.10293
1519.77875,798.65465
1519.77875,806.54854
1519.77875,807.20637
1519.77875,807.86419
1519.77875,809.17984
1519.77875,805.89072
1519.77875,809.83766
1521.3945,808.52201
1521.3945,811.15331
1521.3945,810.49549
1523.01026,812.46896
1523.01026,811.81114
1524.62602,817.73156
1524.62602,819.04721
1524.62602,813.12679
1524.62602,822.33633
1524.62602,818.38938
1526.24177,824.96762
1526.24177,821.6785
1526.24177,822.99415
1526.24177,813.78461
1526.24177,814.44243
1526.24177,815.10026
1526.24177,815.75808
1526.24177,816.41591
1526.24177,817.07373
1526.24177,823.65198
1526.24177,819.70503
1526.24177,824.3098
1527.85753,826.28327
1527.85753,820.36285
1527.85753,821.02068
1527.85753,825.62545
1529.47328,832.20369
1529.47328,826.9411
1529.47328,831.54587
1529.47328,830.88804
1531.08904,832.86152
1531.08904,830.23022
1531.08904,827.59892
1532.70479,832.86152
1532.70479,828.25675
1532.70479,829.5724
1532.70479,834.17717
1532.70479,834.83499
1532.70479,833.51934
1534.32055,828.91457
1534.32055,835.49282
1535.93631,839.43976
1535.93631,835.49282
1535.93631,837.46629
1535.93631,838.12411
1535.93631,838.78194
1535.93631,840.09759
1537.55206,840.75541
1537.55206,836.80846
1537.55206,835.49282
1539.16782,845.36018
1539.16782,841.41324
1539.16782,844.04453
1539.16782,844.70236
1539.16782,847.33366
1539.16782,836.15064
1539.16782,846.01801
1539.16782,846.67583
1539.16782,835.49282
1540.78357,842.72888
1540.78357,843.38671
1540.78357,842.07106
1544.01508,841.41324
1544.01508,842.07106
1545.63084,838.78194
1545.63084,840.75541
1545.63084,840.09759
1545.63084,839.43976
1547.2466,837.46629
1547.2466,838.12411
1547.2466,836.15064
1547.2466,826.28327
1547.2466,826.9411
1547.2466,836.80846
1548.86235,831.54587
1548.86235,825.62545
1548.86235,827.59892
1548.86235,834.17717
1548.86235,832.20369
1548.86235,830.88804
1548.86235,834.83499
1548.86235,835.49282
1550.47811,830.23022
1550.47811,828.25675
1550.47811,833.51934
1550.47811,828.91457
1550.47811,832.86152
1550.47811,825.62545
1552.09386,829.5724
1552.09386,825.62545
1552.09386,824.96762
1553.70962,824.96762
1555.32538,825.62545
1556.94113,826.28327
1558.55689,826.28327
1560.17264,825.62545
1561.7884,825.62545
1563.40415,825.62545
1563.40415,822.99415
1563.40415,824.3098
1563.40415,823.65198
1563.40415,824.96762
1565.01991,822.33633
1565.01991,822.99415
1566.63567,822.33633
1568.25142,822.33633
1569.86718,822.33633
1571.48293,822.33633
1573.09869,822.33633
1574.71444,821.6785
1574.71444,821.02068
1574.71444,817.07373
1574.71444,817.73156
1574.71444,818.38938
1574.71444,819.04721
1574.71444,819.70503
1574.71444,820.36285
1574.71444,816.41591
1576.3302,816.41591
1577.94596,815.10026
1577.94596,816.41591
1577.94596,814.44243
1577.94596,813.78461
1579.56171,816.41591
1579.56171,813.78461
1579.56171,815.75808
1579.56171,814.44243
1581.17747,815.10026
1581.17747,815.75808
1581.17747,816.41591
1582.79322,816.41591
1584.40898,816.41591
1586.02474,816.41591
1587.64049,817.07373
1589.25625,819.04721
1589.25625,817.73156
1589.25625,818.38938
1589.25625,821.02068
1589.25625,819.70503
1589.25625,820.36285
1590.872,821.6785
1592.48776,821.02068
1594.10351,820.36285
1595.71927,821.02068
1597.33503,821.6785
1598.95078,821.02068
1598.95078,821.6785
1600.56654,821.02068
1602.18229,815.75808
1602.18229,821.02068
1602.18229,820.36285
1602.18229,819.70503
1602.18229,819.04721
1602.18229,818.38938
1602.18229,817.73156
1602.18229,817.07373
1602.18229,816.41591
1603.79805,815.75808
1605.4138,815.75808
1607.02956,815.10026
1607.02956,815.75808
1608.64532,814.44243
1608.64532,815.10026
1610.26107,813.12679
1610.26107,814.44243
1610.26107,813.78461
1611.87683,813.12679
1613.49258,811.81114
1613.49258,813.12679
1613.49258,812.46896
1615.10834,810.49549
1615.10834,811.81114
1615.10834,811.15331
1616.72409,810.49549
1618.33985,809.83766
1619.95561,808.52201
1619.95561,809.17984
1621.57136,807.86419
1623.18712,805.89072
1623.18712,807.20637
1623.18712,806.54854
1624.80287,805.23289
1624.80287,805.89072
1626.41863,801.28595
1626.41863,805.23289
1626.41863,804.57507
1626.41863,803.91724
1626.41863,803.25942
1626.41863,802.60159
1626.41863,801.94377
1628.03439,801.28595
1629.65014,800.62812
1629.65014,801.28595
1631.2659,799.9703
1632.88165,799.9703
1634.49741,799.9703
1636.11316,799.9703
1637.72892,796.68117
1637.72892,799.9703
1639.34468,797.339
1639.34468,799.31247
1639.34468,798.65465
1639.34468,796.02335
1639.34468,799.9703
1640.96043,792.0764
1640.96043,797.99682
1640.96043,798.65465
1640.96043,795.36553
1640.96043,794.7077
1640.96043,791.41858
1640.96043,792.73423
1640.96043,790.76075
1642.57619,794.04988
1642.57619,793.39205
1642.57619,790.76075
1642.57619,790.10293
1642.57619,789.44511
1644.19194,789.44511
1645.8077,790.76075
1645.8077,788.78728
1647.42345,788.78728
1647.42345,789.44511
1649.03921,788.78728
1649.03921,789.44511
1650.65497,789.44511
1650.65497,790.10293
1652.27072,790.76075
1652.27072,789.44511
1653.88648,790.10293
1653.88648,791.41858
1655.50223,792.0764
1655.50223,790.76075
1657.11799,791.41858
1657.11799,792.0764
1658.73375,791.41858
1658.73375,791.41858
1660.3495,791.41858
1660.3495,790.76075
1661.96526,790.10293
1661.96526,791.41858
1663.58101,792.0764
1663.58101,790.76075
1665.19677,791.41858
1665.19677,792.0764
1666.81252,791.41858
1666.81252,792.0764
1668.42828,792.0764
1668.42828,791.41858
1670.04404,792.0764
1670.04404,791.41858
1671.65979,792.0764
1671.65979,790.76075
1673.27555,792.0764
1673.27555,789.44511
1673.27555,791.41858
1673.27555,790.76075
1673.27555,790.10293
1673.27555,790.76075
1674.8913,788.12946
1674.8913,789.44511
1674.8913,788.78728
1674.8913,790.10293
1676.50706,789.44511
1676.50706,788.12946
1678.12281,788.12946
1678.12281,788.78728
1679.73857,786.15598
1679.73857,787.47163
1679.73857,784.84033
1679.73857,785.49816
1679.73857,787.47163
1679.73857,786.81381
1681.35433,786.15598
1681.35433,784.18251
1682.97008,784.18251
1682.97008,784.84033
1684.58584,782.86686
1684.58584,783.52469
1684.58584,784.18251
1686.20159,782.20904
1686.20159,783.52469
1686.20159,781.55121
1687.81735,784.18251
1689.4331,784.84033
1691.04886,785.49816
1692.66462,786.15598
1694.28037,786.81381
1695.89613,786.81381
1697.51188,786.81381
1699.12764,786.81381
1700.7434,786.15598
1702.35915,785.49816
1703.97491,784.18251
1705.59066,782.86686
1707.20642,782.20904
1708.82217,780.23556
1710.43793,778.26209
1712.05369,776.94644
1713.66944,774.97297
1715.2852,773.65732
1716.90095,772.34167
1718.51671,770.3682
1720.13246,769.05255
1721.74822,768.39472
1723.36398,765.1056
1723.36398,765.76343
1723.36398,767.7369
1724.97973,767.07907
1724.97973,767.07907
1724.97973,766.42125
1726.59549,767.07907
1726.59549,767.7369
1728.21124,768.39472
1728.21124,767.07907
1729.827,769.05255
1729.827,768.39472
1729.827,767.7369
1731.44276,769.05255
1731.44276,769.71037
1733.05851,770.3682
1733.05851,769.05255
1734.67427,769.05255
1734.67427,770.3682
1736.29002,769.71037
1736.29002,769.05255
1736.29002,771.02602
1737.90578,769.71037
1737.90578,771.02602
1739.52153,771.68385
1739.52153,771.02602
1739.52153,771.68385
1739.52153,772.34167
1739.52153,770.3682
1739.52153,769.71037
1741.13729,772.99949
1741.13729,771.68385
1742.75305,772.99949
1742.75305,771.68385
1744.3688,772.34167
1744.3688,772.34167
1745.98456,772.99949
1745.98456,772.34167
1747.60031,772.34167
1747.60031,772.34167
1749.21607,771.68385
1749.21607,772.34167
1750.83182,772.99949
1750.83182,772.34167
1750.83182,771.68385
1752.44758,772.34167
1752.44758,773.65732
1752.44758,772.99949
1754.06334,772.99949
1754.06334,774.31514
1755.67909,774.97297
1755.67909,772.99949
1755.67909,773.65732
1757.29485,773.65732
1757.29485,776.28862
1757.29485,774.31514
1758.9106,778.26209
1758.9106,774.97297
1758.9106,775.63079
1758.9106,776.28862
1758.9106,776.94644
1758.9106,777.60427
1758.9106,777.60427
1758.9106,778.91991
1760.52636,779.57774
1760.52636,778.26209
1762.14211,778.91991
1762.14211,779.57774
1763.75787,779.57774
1763.75787,778.91991
1765.37363,778.91991
1765.37363,778.91991
1766.98938,778.26209
1766.98938,778.91991
1768.60514,778.91991
1768.60514,778.91991
1770.22089,778.91991
1770.22089,779.57774
1771.83665,778.91991
1771.83665,778.26209
1771.83665,779.57774
1773.45241,778.26209
1773.45241,777.60427
1773.45241,778.91991
1775.06816,777.60427
1775.06816,778.26209
1775.06816,776.28862
1775.06816,776.94644
1775.06816,775.63079
1775.06816,774.97297
1775.06816,776.28862
1776.68392,773.65732
1776.68392,775.63079
1776.68392,774.97297
1776.68392,774.31514
1778.29967,772.34167
1778.29967,772.99949
1778.29967,774.31514
1778.29967,773.65732
1779.91543,773.65732
1779.91543,771.68385
1779.91543,772.34167
1781.53118,771.68385
1781.53118,772.99949
1783.14694,771.68385
1783.14694,771.68385
1784.7627,771.68385
1784.7627,771.02602
1786.37845,771.68385
1786.37845,771.02602
1786.37845,769.05255
1786.37845,770.3682
1786.37845,769.71037
1786.37845,770.3682
1786.37845,768.39472
1787.99421,768.39472
1787.99421,767.7369
1787.99421,769.05255
1789.60996,767.07907
1789.60996,769.05255
1791.22572,768.39472
1791.22572,767.07907
1792.84147,768.39472
1792.84147,767.7369
1794.45723,768.39472
1794.45723,767.07907
1796.07299,767.7369
1796.07299,768.39472
1797.68874,768.39472
1797.68874,768.39472
1799.3045,767.7369
1799.3045,769.05255
1800.92025,767.07907
1800.92025,765.76343
1800.92025,767.07907
1800.92025,768.39472
1800.92025,767.7369
1800.92025,766.42125
1800.92025,765.1056
1800.92025,764.44778
1802.53601,763.78995
1802.53601,764.44778
1802.53601,766.42125
1804.15177,763.13213
1804.15177,762.4743
1804.15177,765.1056
1805.76752,763.78995
1805.76752,762.4743
1807.38328,762.4743
1807.38328,762.4743
1807.38328,761.15865
1808.99903,761.81648
1808.99903,762.4743
1808.99903,762.4743
1808.99903,760.50083
1808.99903,759.84301
1810.61479,761.81648
1810.61479,762.4743
1810.61479,761.15865
1810.61479,759.84301
1810.61479,760.50083
1810.61479,762.4743
1812.23054,762.4743
1812.23054,762.4743
1813.8463,765.1056
1813.8463,763.78995
1813.8463,764.44778
1813.8463,763.13213
1813.8463,763.78995
1815.46206,765.76343
1815.46206,764.44778
1817.07781,766.42125
1817.07781,765.1056
1817.07781,765.76343
1818.69357,765.76343
1818.69357,767.07907
1820.30932,765.76343
1820.30932,767.07907
1821.92508,767.07907
1821.92508,766.42125
1823.54083,766.42125
1823.54083,766.42125
1825.15659,765.76343
1825.15659,766.42125
1826.77235,765.76343
1826.77235,766.42125
1828.3881,766.42125
1828.3881,766.42125
1830.00386,767.07907
1830.00386,766.42125
1831.61961,765.76343
1831.61961,767.07907
1831.61961,766.42125
1833.23537,765.1056
1833.23537,766.42125
1834.85112,766.42125
1834.85112,765.1056
1834.85112,765.76343
1836.46688,765.76343
1836.46688,764.44778
1838.08264,764.44778
1838.08264,765.76343
1839.69839,763.78995
1839.69839,765.1056
1839.69839,764.44778
1841.31415,764.44778
1841.31415,763.13213
1842.9299,763.78995
1842.9299,764.44778
1842.9299,763.13213
1844.54566,763.13213
1844.54566,762.4743
1846.16142,763.13213
1846.16142,762.4743
1847.77717,763.13213
1847.77717,761.81648
1849.39293,761.81648
1849.39293,763.13213
1851.00868,761.81648
1851.00868,761.15865
1851.00868,762.4743
1852.62444,761.15865
1852.62444,761.15865
1852.62444,761.15865
1854.24019,760.50083
1854.24019,760.50083
1854.24019,761.15865
1855.85595,761.15865
1855.85595,760.50083
1855.85595,760.50083
1857.47171,759.84301
1857.47171,759.84301
1857.47171,760.50083
1857.47171,761.15865
1859.08746,759.18518
1859.08746,760.50083
1859.08746,759.18518
1860.70322,759.84301
1860.70322,758.52736
1860.70322,760.50083
1860.70322,758.52736
1862.31897,757.86953
1862.31897,757.86953
1862.31897,759.84301
1863.93473,759.18518
1863.93473,757.21171
1863.93473,757.21171
1865.55048,755.23823
1865.55048,757.86953
1865.55048,757.21171
1865.55048,758.52736
1865.55048,756.55388
1865.55048,756.55388
1865.55048,755.89606
1865.55048,756.55388
1867.16624,755.23823
1867.16624,755.89606
1867.16624,755.89606
1868.782,755.89606
1868.782,755.23823
1868.782,755.89606
1870.39775,755.89606
1870.39775,755.89606
1870.39775,755.89606
1872.01351,755.89606
1872.01351,756.55388
1872.01351,755.89606
1873.62926,755.89606
1873.62926,755.89606
1873.62926,755.89606
1875.24502,756.55388
1875.24502,756.55388
1875.24502,755.23823
1876.86078,755.23823
1876.86078,755.89606
1876.86078,756.55388
1876.86078,756.55388
1878.47653,757.21171
1878.47653,755.89606
1878.47653,757.21171
1880.09229,755.89606
1880.09229,757.21171
1880.09229,756.55388
1880.09229,757.86953
1880.09229,757.86953
1881.70804,758.52736
1881.70804,759.18518
1881.70804,757.86953
1881.70804,757.21171
1881.70804,759.18518
1883.3238,759.18518
1883.3238,759.18518
1883.3238,760.50083
1883.3238,759.84301
1883.3238,759.18518
1884.93955,759.84301
1884.93955,759.84301
1884.93955,760.50083
1886.55531,761.15865
1886.55531,761.15865
1886.55531,760.50083
1888.17107,761.81648
1888.17107,762.4743
1888.17107,760.50083
1888.17107,761.81648
1888.17107,761.15865
1888.17107,761.81648
1889.78682,761.81648
1889.78682,762.4743
1889.78682,761.81648
1891.40258,763.13213
1891.40258,763.13213
1891.40258,762.4743
1893.01833,762.4743
1893.01833,763.78995
1893.01833,763.78995
1894.63409,765.1056
1894.63409,762.4743
1894.63409,765.1056
1894.63409,768.39472
1894.63409,767.7369
1896.24984,769.05255
1896.24984,767.07907
1896.24984,763.78995
1896.24984,762.4743
1896.24984,767.07907
1896.24984,763.13213
1896.24984,767.07907
1897.8656,765.1056
1897.8656,763.78995
1897.8656,770.3682
1897.8656,771.02602
1897.8656,771.68385
1897.8656,772.34167
1897.8656,772.99949
1897.8656,764.44778
1897.8656,768.39472
1897.8656,769.71037
1897.8656,766.42125
1897.8656,768.39472
1899.48136,770.3682
1899.48136,770.3682
1899.48136,765.76343
1899.48136,774.31514
1899.48136,773.65732
1899.48136,765.1056
1901.09711,776.28862
1901.09711,771.68385
1901.09711,774.97297
1901.09711,771.68385
1902.71287,775.63079
1902.71287,772.99949
1902.71287,772.99949
1904.32862,774.31514
1904.32862,774.31514
1905.94438,774.97297
1905.94438,774.97297
1907.56013,774.97297
1907.56013,774.97297
1909.17589,774.97297
1909.17589,774.97297
1910.79165,773.65732
1910.79165,773.65732
1912.4074,772.99949
1912.4074,772.99949
1914.02316,771.02602
1914.02316,771.02602
1915.63891,769.05255
1915.63891,769.05255
1917.25467,767.7369
1917.25467,767.7369
1918.87043,765.1056
1918.87043,765.1056
1920.48618,763.78995
1920.48618,763.78995
1922.10194,762.4743
1922.10194,762.4743
1923.71769,761.15865
1923.71769,761.15865
1925.33345,761.15865
1925.33345,761.15865
1926.9492,761.81648
1926.9492,761.81648
1928.56496,762.4743
1928.56496,762.4743
1930.18072,763.78995
1930.18072,763.78995
1931.79647,765.76343
1931.79647,765.76343
1933.41223,767.07907
1933.41223,767.07907
1935.02798,768.39472
1935.02798,768.39472
1936.64374,770.3682
1936.64374,770.3682
1938.25949,772.34167
1938.25949,772.34167
1939.87525,773.65732
1939.87525,773.65732
1941.49101,773.65732
1941.49101,773.65732
1943.10676,773.65732
1943.10676,773.65732
1944.72252,772.34167
1944.72252,772.34167
1946.33827,769.71037
1946.33827,769.71037
1947.95403,768.39472
1947.95403,768.39472
1949.56979,765.76343
1949.56979,765.76343
1951.18554,763.78995
1951.18554,763.78995
1952.8013,762.4743
1952.8013,762.4743
1954.41705,760.50083
1954.41705,760.50083
1956.03281,758.52736
1956.03281,758.52736
1957.64856,756.55388
1957.64856,756.55388
1959.26432,755.89606
1959.26432,755.89606
1960.88008,755.23823
1960.88008,755.23823
1962.49583,755.23823
1962.49583,755.23823
1964.11159,756.55388
1964.11159,756.55388
1965.72734,757.86953
1965.72734,757.86953
1967.3431,759.18518
1967.3431,759.18518
1968.95885,761.81648
1968.95885,761.81648
1970.57461,763.13213
1970.57461,763.13213
1972.19037,765.1056
1972.19037,765.1056
1973.80612,767.7369
1973.80612,767.7369
1975.42188,770.3682
1975.42188,770.3682
1977.03763,771.68385
1977.03763,771.68385
1978.65339,772.99949
1978.65339,772.99949
1980.26914,772.99949
1980.26914,772.99949
1981.8849,771.68385
1981.8849,771.68385
1983.50066,770.3682
1985.11641,769.05255
1986.73217,767.7369
1988.34792,767.07907
1989.96368,765.76343
1991.57944,765.76343
1993.19519,765.76343
1994.81095,765.76343
1996.4267,765.1056
1998.04246,765.1056
1999.65821,765.1056
2001.27397,764.44778
2002.88973,764.44778
2004.50548,763.78995
2006.12124,763.78995
2007.73699,763.78995
2009.35275,764.44778
2010.9685,765.1056
2012.58426,765.76343
2014.20002,765.76343
2015.81577,765.76343
2017.43153,765.1056
2019.04728,764.44778
2020.66304,763.13213
2022.2788,761.81648
2023.89455,760.50083
2025.51031,760.50083
2025.51031,759.18518
2025.51031,757.86953
2025.51031,758.52736
2027.12606,759.18518
2027.12606,759.84301
2027.12606,759.84301
2028.74182,760.50083
2028.74182,759.84301
2030.35757,759.84301
2030.35757,761.15865
2031.97333,760.50083
2031.97333,761.15865
2031.97333,761.81648
2033.58909,761.81648
2033.58909,762.4743
2035.20484,761.81648
2035.20484,763.78995
2035.20484,762.4743
2036.8206,763.78995
2036.8206,762.4743
2038.43635,762.4743
2038.43635,763.78995
2040.05211,763.78995
2040.05211,763.13213
2040.05211,762.4743
2041.66786,763.13213
2041.66786,763.78995
2041.66786,764.44778
2043.28362,763.78995
2043.28362,765.1056
2044.89938,763.78995
2044.89938,765.1056
2046.51513,764.44778
2046.51513,766.42125
2046.51513,763.78995
2046.51513,765.1056
2048.13089,767.07907
2048.13089,765.1056
2049.74664,765.76343
2049.74664,767.7369
2051.3624,766.42125
2051.3624,767.07907
2051.3624,767.7369
2051.3624,768.39472
2051.3624,769.05255
2051.3624,768.39472
2052.97815,769.05255
2052.97815,769.71037
2054.59391,769.05255
2054.59391,769.71037
2056.20967,769.05255
2056.20967,769.71037
2057.82542,768.39472
2057.82542,769.71037
2059.44118,769.05255
2059.44118,768.39472
2059.44118,767.7369
2061.05693,767.7369
2061.05693,767.07907
2061.05693,768.39472
2062.67269,767.07907
2062.67269,767.7369
2062.67269,765.76343
2062.67269,766.42125
2064.28845,766.42125
2064.28845,765.1056
2065.9042,763.78995
2065.9042,766.42125
2065.9042,765.76343
2065.9042,765.1056
2067.51996,765.1056
2067.51996,764.44778
2067.51996,762.4743
2069.13571,761.15865
2069.13571,763.78995
2069.13571,764.44778
2070.75147,761.81648
2070.75147,759.84301
2070.75147,759.18518
2070.75147,763.13213
2070.75147,762.4743
2070.75147,761.15865
2070.75147,758.52736
2070.75147,760.50083
2070.75147,760.50083
2072.36722,757.21171
2072.36722,757.86953
2072.36722,759.18518
2072.36722,758.52736
2073.98298,758.52736
2073.98298,757.21171
2075.59874,757.86953
2075.59874,757.86953
2077.21449,758.52736
2077.21449,757.86953
2078.83025,759.18518
2078.83025,757.86953
2080.446,757.86953
2080.446,758.52736
2082.06176,757.86953
2082.06176,757.86953
2083.67751,758.52736
2083.67751,757.21171
2083.67751,759.18518
2083.67751,758.52736
2083.67751,759.84301
2083.67751,757.86953
2085.29327,759.84301
2085.29327,759.18518
2085.29327,760.50083
2086.90903,760.50083
2086.90903,761.15865
2086.90903,759.84301
2088.52478,759.84301
2088.52478,761.15865
2090.14054,760.50083
2090.14054,761.15865
2091.75629,761.81648
2091.75629,761.15865
2093.37205,762.4743
2093.37205,761.15865
2094.98781,761.81648
2094.98781,762.4743
2094.98781,761.15865
2094.98781,763.13213
2094.98781,763.13213
2096.60356,764.44778
2096.60356,763.13213
2098.21932,765.76343
2098.21932,763.13213
2099.83507,763.13213
2099.83507,763.78995
2099.83507,766.42125
2099.83507,764.44778
2101.45083,767.07907
2101.45083,765.1056
2101.45083,768.39472
2101.45083,764.44778
2101.45083,770.3682
2101.45083,766.42125
2101.45083,765.76343
2103.06658,767.7369
2103.06658,769.71037
2103.06658,769.05255
2103.06658,772.99949
2103.06658,772.34167
2103.06658,771.68385
2103.06658,771.02602
2103.06658,768.39472
2104.68234,768.39472
2104.68234,771.68385
2104.68234,769.05255
2104.68234,773.65732
2104.68234,774.31514
2106.2981,772.34167
2106.2981,774.31514
2106.2981,774.97297
2107.91385,773.65732
2107.91385,775.63079
2107.91385,776.28862
2107.91385,774.97297
2109.52961,774.97297
2109.52961,776.94644
2109.52961,776.28862
2111.14536,776.28862
2111.14536,776.94644
2112.76112,776.28862
2112.76112,776.28862
2114.37687,776.94644
2114.37687,776.28862
2115.99263,776.28862
2115.99263,776.94644
2117.60839,776.94644
2117.60839,775.63079
2119.22414,772.99949
2119.22414,772.34167
2119.22414,771.68385
2119.22414,770.3682
2119.22414,774.31514
2119.22414,774.97297
2119.22414,775.63079
2119.22414,776.28862
2119.22414,773.65732
2119.22414,771.02602
2119.22414,773.65732
2120.8399,772.99949
2120.8399,768.39472
2120.8399,769.71037
2120.8399,769.05255
2122.45565,767.07907
2122.45565,765.76343
2122.45565,766.42125
2122.45565,771.02602
2122.45565,767.7369
2124.07141,763.78995
2124.07141,769.05255
2124.07141,765.1056
2124.07141,763.13213
2125.68716,764.44778
2125.68716,761.81648
2125.68716,762.4743
2125.68716,767.07907
2127.30292,765.1056
2127.30292,761.81648
2128.91868,761.81648
2128.91868,763.13213
2130.53443,761.81648
2130.53443,761.15865
2130.53443,760.50083
2130.53443,759.84301
2130.53443,759.18518
2130.53443,761.81648
2132.15019,758.52736
2132.15019,760.50083
2132.15019,759.18518
2133.76594,759.18518
2133.76594,757.86953
2135.3817,757.86953
2135.3817,758.52736
2136.99746,757.86953
2136.99746,757.86953
2138.61321,758.52736
2138.61321,758.52736
2140.22897,759.18518
2140.22897,758.52736
2141.84472,759.84301
2141.84472,759.18518
2143.46048,759.84301
2143.46048,761.15865
2143.46048,759.84301
2143.46048,760.50083
2145.07623,760.50083
2145.07623,761.15865
2146.69199,760.50083
2146.69199,760.50083
2148.30775,759.84301
2148.30775,760.50083
2149.9235,759.18518
2149.9235,759.84301
2151.53926,758.52736
2151.53926,757.86953
2151.53926,759.84301
2151.53926,759.84301
2151.53926,759.18518
2153.15501,759.18518
2153.15501,757.86953
2154.77077,757.21171
2154.77077,759.18518
2154.77077,757.86953
2156.38652,758.52736
2156.38652,756.55388
2158.00228,755.89606
2158.00228,756.55388
2158.00228,757.86953
2159.61804,757.21171
2159.61804,755.89606
2161.23379,755.23823
2161.23379,756.55388
2162.84955,756.55388
2162.84955,755.23823
2164.4653,756.55388
2164.4653,755.23823
2166.08106,756.55388
2166.08106,755.89606
2167.69682,758.52736
2167.69682,756.55388
2167.69682,757.86953
2167.69682,757.21171
2167.69682,756.55388
2169.31257,759.18518
2169.31257,757.21171
2170.92833,757.86953
2170.92833,759.84301
2172.54408,758.52736
2172.54408,760.50083
2174.15984,761.15865
2174.15984,759.18518
2175.77559,761.15865
2175.77559,759.84301
2177.39135,760.50083
2177.39135,761.15865
2179.00711,761.15865
2179.00711,761.15865
2180.62286,762.4743
2180.62286,761.15865
2182.23862,765.1056
2182.23862,764.44778
2182.23862,763.13213
2182.23862,761.15865
2183.85437,764.44778
2183.85437,761.15865
2183.85437,765.76343
2183.85437,761.81648
2183.85437,763.78995
2185.47013,766.42125
2185.47013,763.13213
2185.47013,762.4743
2185.47013,767.7369
2185.47013,767.07907
2185.47013,766.42125
2185.47013,768.39472
2185.47013,769.05255
2185.47013,769.71037
2185.47013,770.3682
2185.47013,761.81648
2187.08588,771.02602
2187.08588,771.68385
2187.08588,768.39472
2187.08588,772.34167
2188.70164,770.3682
2188.70164,772.99949
2190.3174,773.65732
2190.3174,774.31514
2190.3174,774.97297
2190.3174,772.34167
2191.93315,776.28862
2191.93315,776.94644
2191.93315,775.63079
2191.93315,773.65732
2193.54891,774.31514
2195.16466,774.31514
2196.78042,773.65732
2198.39617,772.99949
2200.01193,772.34167
2201.62769,771.68385
2203.24344,771.68385
2204.8592,771.68385
2206.47495,771.68385
2208.09071,771.02602
2209.70647,771.02602
2211.32222,769.71037
2212.93798,769.05255
2214.55373,767.7369
2216.16949,766.42125
2217.78524,765.76343
2219.401,765.1056
2221.01676,765.1056
2222.63251,765.76343
2224.24827,767.07907
2225.86402,768.39472
2227.47978,769.05255
2229.09553,769.71037
2230.71129,769.05255
2232.32705,769.05255
2233.9428,768.39472
2235.55856,767.7369
2237.17431,767.07907
2238.79007,767.07907
2240.40583,767.07907
2242.02158,767.7369
2243.63734,768.39472
2245.25309,768.39472
2246.86885,768.39472
2248.4846,768.39472
2250.10036,768.39472
2251.71612,767.7369
2253.33187,767.07907
2254.94763,766.42125
2256.56338,765.76343
2258.17914,765.1056
2259.79489,765.1056
2261.41065,765.1056
2263.02641,765.1056
2264.64216,764.44778
2266.25792,764.44778
2267.87367,764.44778
2269.48943,763.78995
2271.10518,763.78995
2272.72094,763.13213
2274.3367,761.81648
2275.95245,761.15865
2277.56821,759.84301
2279.18396,758.52736
2280.79972,756.55388
2282.41548,755.89606
2284.03123,753.26476
2284.03123,753.92259
2284.03123,758.52736
2284.03123,751.94911
2284.03123,757.86953
2284.03123,752.60694
2285.64699,754.58041
2285.64699,759.18518
2285.64699,757.21171
2285.64699,761.15865
2285.64699,761.81648
2285.64699,762.4743
2285.64699,763.13213
2285.64699,759.84301
2285.64699,764.44778
2285.64699,760.50083
2285.64699,763.78995
2287.26274,756.55388
2287.26274,755.89606
2287.26274,766.42125
2287.26274,765.76343
2287.26274,765.1056
2287.26274,764.44778
2287.26274,755.23823
2288.8785,767.07907
2288.8785,768.39472
2288.8785,769.05255
2288.8785,767.7369
2288.8785,769.71037
2290.49425,770.3682
2290.49425,772.99949
2290.49425,774.97297
2290.49425,771.02602
2290.49425,774.31514
2290.49425,771.68385
2290.49425,772.34167
2292.11001,775.63079
2292.11001,776.94644
2292.11001,777.60427
2292.11001,773.65732
2292.11001,778.91991
2292.11001,779.57774
2292.11001,776.28862
2293.72577,780.89339
2293.72577,780.23556
2293.72577,778.26209
2293.72577,781.55121
2295.34152,786.15598
2295.34152,785.49816
2295.34152,782.20904
2295.34152,786.81381
2296.95728,789.44511
2296.95728,791.41858
2296.95728,788.78728
2296.95728,782.86686
2296.95728,784.84033
2296.95728,792.0764
2296.95728,788.12946
2296.95728,787.47163
2298.57303,793.39205
2298.57303,790.10293
2298.57303,790.76075
2298.57303,794.04988
2298.57303,794.7077
2298.57303,797.339
2298.57303,792.73423
2298.57303,783.52469
2298.57303,784.18251
2298.57303,796.68117
2300.18879,796.02335
2300.18879,797.99682
2300.18879,798.65465
2300.18879,795.36553
2300.18879,799.31247
2301.80454,801.28595
2301.80454,801.94377
2301.80454,802.60159
2301.80454,803.25942
2301.80454,805.89072
2301.80454,800.62812
2301.80454,799.9703
2303.4203,805.23289
2303.4203,804.57507
2303.4203,803.91724
2303.4203,807.86419
2303.4203,808.52201
2303.4203,809.17984
2303.4203,809.83766
2303.4203,810.49549
2303.4203,806.54854
2303.4203,807.20637
2305.03606,815.75808
2305.03606,812.46896
2305.03606,811.15331
2305.03606,811.81114
2305.03606,813.78461
2305.03606,814.44243
2305.03606,815.10026
2305.03606,817.73156
2305.03606,816.41591
2305.03606,813.12679
2305.03606,818.38938
2305.03606,819.04721
2306.65181,821.02068
2306.65181,819.70503
2306.65181,820.36285
2306.65181,817.07373
2308.26757,822.33633
2308.26757,822.99415
2308.26757,823.65198
2308.26757,826.28327
2308.26757,824.96762
2308.26757,825.62545
2308.26757,821.6785
2309.88332,826.9411
2309.88332,827.59892
2309.88332,828.25675
2309.88332,828.91457
2309.88332,829.5724
2309.88332,824.3098
2311.49908,830.88804
2311.49908,830.23022
2313.11484,831.54587
2313.11484,832.20369
2314.73059,834.83499
2314.73059,832.86152
2316.34635,836.15064
2316.34635,834.17717
2316.34635,835.49282
2316.34635,833.51934
2317.9621,836.80846
2317.9621,836.15064
2319.57786,837.46629
2319.57786,838.12411
2319.57786,836.80846
2321.19361,838.12411
2322.80937,846.67583
2322.80937,847.33366
2322.80937,844.70236
2322.80937,838.12411
2322.80937,846.01801
2322.80937,845.36018
2324.42513,838.12411
2324.42513,846.01801
2324.42513,846.67583
2324.42513,847.33366
2324.42513,845.36018
2324.42513,844.04453
2324.42513,844.70236
2326.04088,841.41324
2326.04088,839.43976
2326.04088,838.12411
2326.04088,840.75541
2326.04088,843.38671
2326.04088,842.72888
2326.04088,842.07106
2326.04088,840.09759
2326.04088,844.04453
2326.04088,838.78194
2327.65664,843.38671
2327.65664,842.07106
2327.65664,841.41324
2327.65664,840.75541
2327.65664,842.72888
2329.27239,839.43976
2329.27239,840.09759
2330.88815,838.12411
2330.88815,838.78194
2332.5039,837.46629
2332.5039,836.80846
2334.11966,836.15064
2334.11966,832.20369
2334.11966,834.83499
2334.11966,834.17717
2334.11966,833.51934
2334.11966,832.86152
2334.11966,831.54587
2335.73542,835.49282
2335.73542,830.88804
2335.73542,830.23022
2335.73542,829.5724
2337.35117,828.91457
2337.35117,828.25675
2337.35117,827.59892
2337.35117,826.9411
2337.35117,819.04721
2337.35117,819.70503
2337.35117,820.36285
2337.35117,821.02068
2337.35117,825.62545
2337.35117,824.96762
2337.35117,824.3098
2337.35117,823.65198
2338.96693,822.99415
2338.96693,822.33633
2338.96693,821.6785
2338.96693,826.28327
2338.96693,818.38938
2340.58268,817.73156
2340.58268,815.10026
2342.19844,816.41591
2342.19844,815.75808
2342.19844,817.07373
2342.19844,814.44243
2342.19844,813.78461
2342.19844,813.12679
2342.19844,809.83766
2342.19844,810.49549
2343.81419,812.46896
2343.81419,811.15331
2343.81419,811.81114
2343.81419,809.17984
2343.81419,807.86419
2343.81419,807.20637
2343.81419,803.91724
2343.81419,808.52201
2345.42995,805.89072
2345.42995,804.57507
2345.42995,806.54854
2345.42995,803.25942
2345.42995,802.60159
2345.42995,801.94377
2345.42995,805.23289
2347.04571,801.28595
2347.04571,798.65465
2348.66146,799.31247
2348.66146,799.9703
2348.66146,797.99682
2348.66146,797.339
2348.66146,796.68117
2348.66146,794.04988
2348.66146,793.39205
2348.66146,800.62812
2350.27722,795.36553
2350.27722,796.02335
2350.27722,794.7077
2350.27722,792.73423
2350.27722,792.0764
2350.27722,790.76075
2350.27722,790.10293
2350.27722,791.41858
2351.89297,789.44511
2351.89297,786.15598
2353.50873,786.81381
2353.50873,788.78728
2353.50873,785.49816
2353.50873,778.26209
2353.50873,788.12946
2353.50873,772.34167
2353.50873,787.47163
2353.50873,771.68385
2355.12449,775.63079
2355.12449,784.18251
2355.12449,784.84033
2355.12449,774.97297
2355.12449,777.60427
2355.12449,772.99949
2355.12449,771.02602
2355.12449,778.91991
2355.12449,782.20904
2355.12449,781.55121
2355.12449,783.52469
2356.74024,776.94644
2356.74024,780.89339
2356.74024,780.23556
2356.74024,779.57774
2356.74024,782.86686
2356.74024,776.28862
2356.74024,774.31514
2356.74024,773.65732
2356.74024,770.3682
2356.74024,769.71037
2356.74024,769.05255
2356.74024,768.39472
2356.74024,767.7369
2358.356,767.07907
2358.356,764.44778
2358.356,766.42125
2358.356,765.76343
2358.356,763.78995
2359.97175,762.4743
2359.97175,765.1056
2359.97175,760.50083
2359.97175,761.15865
2359.97175,763.13213
2361.58751,758.52736
2361.58751,761.81648
2361.58751,759.84301
2361.58751,759.18518
2363.20326,756.55388
2363.20326,757.21171
2363.20326,757.86953
2364.81902,755.89606
2366.43478,755.89606
2368.05053,755.89606
2369.66629,755.89606
2371.28204,755.89606
2371.28204,755.23823
2371.28204,754.58041
2371.28204,753.92259
2371.28204,753.26476
2371.28204,752.60694
2372.8978,751.94911
2372.8978,752.60694
2374.51355,753.26476
2374.51355,751.29129
2376.12931,751.29129
2376.12931,750.63346
2376.12931,752.60694
2377.74507,751.29129
2377.74507,750.63346
2379.36082,750.63346
2379.36082,750.63346
2380.97658,749.97564
2380.97658,749.31782
2380.97658,749.97564
2380.97658,750.63346
2382.59233,749.97564
2382.59233,749.31782
2384.20809,747.34434
2384.20809,748.00217
2384.20809,752.60694
2384.20809,748.65999
2385.82385,754.58041
2387.4396,756.55388
2389.05536,760.50083
2390.67111,764.44778
2392.28687,767.07907
2393.90262,770.3682
2395.51838,773.65732
2397.13414,776.28862
2398.74989,778.91991
2400.36565,780.23556
2401.9814,781.55121
2403.59716,781.55121
2405.21291,780.89339
2406.82867,779.57774
2408.44443,777.60427
2410.06018,775.63079
2411.67594,772.99949
2413.29169,771.02602
2414.90745,768.39472
2416.5232,765.1056
2418.13896,763.78995
2419.75472,761.81648
2421.37047,760.50083
2422.98623,759.84301
2424.60198,760.50083
2426.21774,761.81648
2427.8335,762.4743
2429.44925,763.13213
2431.06501,763.13213
2432.68076,763.13213
2434.29652,762.4743
2435.91227,761.81648
2437.52803,761.15865
2439.14379,759.84301
2440.75954,758.52736
2442.3753,757.86953
2443.99105,755.89606
2445.60681,755.23823
2447.22256,754.58041
2448.83832,753.92259
2450.45408,753.92259
2452.06983,754.58041
2453.68559,755.23823
2455.30134,755.89606
2456.9171,755.89606
2458.53286,756.55388
2460.14861,756.55388
2461.76437,756.55388
2463.38012,757.86953
2464.99588,759.18518
2466.61163,760.50083
2468.22739,761.15865
2469.84315,763.78995
2471.4589,766.42125
2473.07466,768.39472
2474.69041,770.3682
2476.30617,772.99949
2477.92192,774.97297
2479.53768,776.94644
2481.15344,778.26209
2482.76919,779.57774
2484.38495,782.20904
2484.38495,782.86686
2484.38495,780.23556
2484.38495,781.55121
2486.0007,779.57774
2486.0007,778.91991
2486.0007,779.57774
2486.0007,780.89339
2486.0007,780.23556
2487.61646,778.91991
2487.61646,778.91991
2489.23221,776.94644
2489.23221,778.26209
2489.23221,778.91991
2490.84797,775.63079
2490.84797,774.97297
2490.84797,772.34167
2490.84797,771.68385
2490.84797,772.99949
2490.84797,776.28862
2490.84797,776.94644
2490.84797,777.60427
2490.84797,778.26209
2490.84797,774.97297
2492.46373,773.65732
2492.46373,773.65732
2492.46373,774.97297
2492.46373,771.02602
2492.46373,770.3682
2494.07948,774.97297
2494.07948,769.71037
2494.07948,771.02602
2494.07948,774.31514
2494.07948,769.05255
2494.07948,766.42125
2494.07948,768.39472
2494.07948,767.07907
2495.69524,764.44778
2495.69524,765.1056
2495.69524,763.78995
2495.69524,767.7369
2495.69524,763.13213
2495.69524,769.05255
2495.69524,765.76343
2497.31099,762.4743
2497.31099,761.81648
2497.31099,767.07907
2498.92675,765.1056
2498.92675,761.81648
2500.54251,759.18518
2500.54251,758.52736
2500.54251,761.15865
2500.54251,763.13213
2502.15826,759.84301
2502.15826,761.81648
2502.15826,760.50083
2502.15826,761.15865
2503.77402,761.15865
2505.38977,761.15865
2507.00553,761.81648
2508.62128,762.4743
2510.23704,763.13213
2511.8528,763.13213
2513.46855,763.78995
2515.08431,765.1056
2516.70006,765.1056
2518.31582,765.76343
2519.93157,765.1056
2521.54733,764.44778
2523.16309,763.13213
2524.77884,761.81648
2526.3946,760.50083
2528.01035,759.18518
2529.62611,757.86953
2531.24187,756.55388
2532.85762,755.89606
2534.47338,755.23823
2536.08913,753.92259
2537.70489,753.26476
2539.32064,752.60694
2540.9364,751.29129
2542.55216,750.63346
2544.16791,750.63346
2545.78367,750.63346
2547.39942,750.63346
2549.01518,751.94911
2550.63093,753.26476
2552.24669,754.58041
2553.86245,756.55388
2555.4782,757.86953
2557.09396,759.18518
2558.70971,760.50083
2560.32547,761.81648
2561.94122,763.13213
2563.55698,763.13213
2565.17274,763.13213
2566.78849,763.13213
2568.40425,761.81648
2570.02,760.50083
2571.63576,758.52736
2573.25152,757.21171
2574.86727,755.23823
2576.48303,753.92259
2578.09878,751.94911
2579.71454,750.63346
2581.33029,749.31782
2581.33029,746.02869
2581.33029,746.68652
2582.94605,748.65999
2582.94605,747.34434
2584.56181,748.00217
2584.56181,749.31782
2584.56181,749.31782
2584.56181,748.65999
2586.17756,749.31782
2586.17756,749.97564
2587.79332,749.31782
2587.79332,751.29129
2587.79332,749.97564
2589.40907,750.63346
2589.40907,751.29129
2589.40907,753.26476
2591.02483,751.94911
2591.02483,754.58041
2591.02483,752.60694
2591.02483,751.29129
2591.02483,753.26476
2592.64058,753.26476
2592.64058,756.55388
2594.25634,759.18518
2594.25634,753.26476
2594.25634,753.92259
2594.25634,754.58041
2594.25634,755.89606
2595.8721,755.23823
2595.8721,756.55388
2595.8721,757.21171
2595.8721,761.15865
2597.48785,763.13213
2597.48785,759.18518
2597.48785,759.84301
2597.48785,766.42125
2597.48785,757.86953
2597.48785,761.81648
2597.48785,762.4743
2597.48785,767.07907
2597.48785,758.52736
2599.10361,761.15865
2599.10361,765.1056
2599.10361,767.07907
2599.10361,763.78995
2599.10361,763.13213
2599.10361,765.76343
2599.10361,760.50083
2600.71936,765.1056
2600.71936,767.07907
2600.71936,766.42125
2600.71936,764.44778
2602.33512,767.7369
2602.33512,767.07907
2603.95088,768.39472
2603.95088,767.07907
2603.95088,767.7369
2603.95088,769.71037
2603.95088,770.3682
2603.95088,769.05255
2603.95088,769.05255
2605.56663,769.71037
2605.56663,771.02602
2607.18239,771.02602
2607.18239,770.3682
2608.79814,771.02602
2608.79814,770.3682
2610.4139,770.3682
2610.4139,770.3682
2612.02965,770.3682
2612.02965,769.71037
2613.64541,768.39472
2613.64541,770.3682
2613.64541,769.71037
2613.64541,769.71037
2613.64541,769.05255
2615.26117,767.7369
2615.26117,768.39472
2615.26117,769.71037
2616.87692,769.05255
2616.87692,767.7369
2616.87692,767.07907
2618.49268,768.39472
2618.49268,767.07907
2620.10843,767.7369
2620.10843,767.07907
2621.72419,767.07907
2621.72419,767.07907
2623.33994,766.42125
2623.33994,767.07907
2623.33994,766.42125
2624.9557,765.76343
2624.9557,765.76343
2626.57146,765.76343
2626.57146,764.44778
2628.18721,763.78995
2628.18721,765.76343
2628.18721,765.1056
2628.18721,764.44778
2629.80297,764.44778
2629.80297,762.4743
2631.41872,763.13213
2631.41872,764.44778
2631.41872,761.81648
2631.41872,763.78995
2633.03448,758.52736
2633.03448,763.13213
2633.03448,761.15865
2633.03448,761.81648
2633.03448,762.4743
2633.03448,759.84301
2633.03448,760.50083
2633.03448,759.18518
2633.03448,760.50083
2634.65023,758.52736
2634.65023,757.86953
2634.65023,759.84301
2636.26599,759.18518
2636.26599,757.86953
2637.88175,758.52736
2637.88175,757.86953
2639.4975,758.52736
2639.4975,758.52736
2641.11326,759.18518
2641.11326,758.52736
2642.72901,757.86953
2642.72901,758.52736
2644.34477,757.86953
2644.34477,757.86953
2645.96053,757.21171
2645.96053,757.86953
2647.57628,756.55388
2647.57628,757.86953
2649.19204,756.55388
2649.19204,757.86953
2650.80779,757.21171
2650.80779,757.21171
2650.80779,756.55388
2652.42355,757.86953
2652.42355,757.86953
2652.42355,756.55388
2654.0393,759.18518
2654.0393,757.21171
2654.0393,758.52736
2654.0393,760.50083
2654.0393,759.84301
2654.0393,758.52736
2654.0393,758.52736
2654.0393,757.86953
2655.65506,759.18518
2655.65506,761.15865
2655.65506,761.81648
2655.65506,760.50083
2655.65506,759.18518
2657.27082,760.50083
2657.27082,760.50083
2657.27082,761.81648
2658.88657,761.15865
2658.88657,761.81648
2658.88657,761.15865
2660.50233,762.4743
2660.50233,761.81648
2660.50233,762.4743
2662.11808,763.78995
2662.11808,762.4743
2662.11808,763.78995
2663.73384,762.4743
2663.73384,763.13213
2663.73384,764.44778
2663.73384,765.1056
2663.73384,765.76343
2663.73384,766.42125
2663.73384,767.07907
2663.73384,763.78995
2663.73384,765.1056
2663.73384,765.1056
2665.34959,766.42125
2665.34959,766.42125
2665.34959,767.07907
2665.34959,767.7369
2665.34959,768.39472
2666.96535,768.39472
2666.96535,767.7369
2668.58111,768.39472
2668.58111,769.05255
2670.19686,769.05255
2670.19686,769.05255
2670.19686,769.71037
2671.81262,770.3682
2671.81262,771.02602
2671.81262,769.05255
2673.42837,769.05255
2675.04413,768.39472
2676.65989,767.07907
2678.27564,766.42125
2679.8914,766.42125
2681.50715,765.76343
2683.12291,765.76343
2684.73866,766.42125
2686.35442,767.07907
2687.97018,767.7369
2689.58593,768.39472
2691.20169,769.71037
2692.81744,771.02602
2694.4332,772.34167
2696.04895,773.65732
2697.66471,773.65732
2699.28047,772.99949
2700.89622,771.68385
2702.51198,770.3682
2704.12773,768.39472
2705.74349,767.07907
2707.35924,765.1056
2708.975,763.78995
2710.59076,762.4743
2712.20651,761.15865
2713.82227,760.50083
2715.43802,760.50083
2717.05378,760.50083
2718.66954,761.81648
2720.28529,763.13213
2721.90105,763.78995
2723.5168,765.76343
2725.13256,767.07907
2726.74831,768.39472
2728.36407,769.71037
2729.97983,771.68385
2731.59558,772.99949
2733.21134,773.65732
2734.82709,773.65732
2736.44285,773.65732
2738.0586,772.99949
2739.67436,771.68385
2741.29012,771.68385
2742.90587,771.68385
2744.52163,772.34167
2746.13738,772.99949
2747.75314,774.31514
2749.3689,774.31514
2750.98465,774.31514
2752.60041,772.34167
2754.21616,771.02602
2755.83192,768.39472
2757.44767,765.76343
2759.06343,763.13213
2760.67919,760.50083
2762.29494,758.52736
2763.9107,756.55388
2765.52645,753.92259
2767.14221,752.60694
2768.75796,751.29129
2770.37372,749.97564
2771.98948,748.65999
2773.60523,748.00217
2775.22099,748.00217
2776.83674,749.31782
2778.4525,751.29129
2780.06825,753.92259
2781.68401,756.55388
2783.29977,759.84301
2784.91552,762.4743
2786.53128,764.44778
2788.14703,766.42125
2789.76279,768.39472
2791.37855,769.71037
2792.9943,769.71037
2794.61006,770.3682
2796.22581,771.02602
2797.84157,771.68385
2799.45732,772.99949
2801.07308,772.99949
2802.68884,773.65732
2804.30459,772.99949
2805.92035,772.34167
2807.5361,771.68385
2809.15186,770.3682
2810.76761,769.71037
2812.38337,769.05255
2813.99913,768.39472
2815.61488,768.39472
2817.23064,769.05255
2818.84639,769.05255
2820.46215,769.05255
2822.07791,769.05255
2823.69366,769.05255
2825.30942,769.05255
2826.92517,768.39472
2828.54093,768.39472
2830.15668,767.7369
2831.77244,767.07907
2833.3882,767.07907
2835.00395,765.76343
2836.61971,765.1056
2838.23546,764.44778
2839.85122,765.1056
2841.46697,765.76343
2843.08273,766.42125
2844.69849,767.07907
2846.31424,768.39472
2847.93,769.05255
2849.54575,769.71037
2851.16151,770.3682
2852.77726,770.3682
2854.39302,771.02602
2856.00878,771.02602
2857.62453,771.02602
2859.24029,771.02602
2860.85604,770.3682
2862.4718,769.71037
2864.08756,769.05255
2865.70331,767.7369
2867.31907,766.42125
2868.93482,765.1056
2870.55058,763.13213
2872.16633,761.81648
2873.78209,761.15865
2875.39785,759.84301
2877.0136,759.84301
2878.62936,759.84301
2880.24511,759.84301
2881.86087,760.50083
2883.47662,760.50083
2885.09238,761.15865
2886.70814,761.81648
2888.32389,762.4743
2889.93965,763.13213
2891.5554,763.13213
2893.17116,763.13213
2894.78692,763.13213
2896.40267,763.13213
2898.01843,763.13213
2899.63418,763.78995
2901.24994,764.44778
2902.86569,764.44778
2904.48145,765.1056
2906.09721,765.76343
2907.71296,766.42125
2909.32872,767.07907
2910.94447,767.07907
2912.56023,766.42125
2914.17598,766.42125
2915.79174,766.42125
2917.4075,767.07907
2919.02325,767.7369
2920.63901,769.05255
2922.25476,771.02602
2923.87052,771.68385
2925.48627,774.97297
2925.48627,773.65732
2925.48627,775.63079
2925.48627,776.28862
2927.10203,774.31514
2927.10203,773.65732
2928.71779,772.99949
2928.71779,773.65732
2928.71779,774.31514
2928.71779,773.65732
2930.33354,772.99949
2930.33354,772.34167
2931.9493,771.68385
2931.9493,772.34167
2933.56505,771.68385
2933.56505,771.02602
2935.18081,771.02602
2935.18081,770.3682
2936.79657,770.3682
2936.79657,771.02602
2936.79657,769.05255
2936.79657,769.71037
2938.41232,770.3682
2938.41232,769.05255
2940.02808,769.05255
2940.02808,770.3682
2941.64383,769.05255
2941.64383,769.05255
2943.25959,766.42125
2943.25959,769.05255
2943.25959,767.7369
2943.25959,767.7369
2943.25959,768.39472
2943.25959,765.76343
2944.87534,764.44778
2944.87534,768.39472
2944.87534,767.07907
2944.87534,767.07907
2944.87534,762.4743
2944.87534,763.13213
2944.87534,763.78995
2944.87534,765.1056
2944.87534,767.07907
2946.4911,761.81648
2946.4911,765.1056
2946.4911,760.50083
2946.4911,761.15865
2946.4911,768.39472
2946.4911,767.7369
2946.4911,765.1056
2948.10686,759.84301
2948.10686,762.4743
2948.10686,758.52736
2948.10686,762.4743
2948.10686,759.18518
2948.10686,757.86953
2949.72261,761.15865
2949.72261,757.21171
2949.72261,761.15865
2951.33837,756.55388
2951.33837,759.18518
2951.33837,759.18518
2951.33837,755.23823
2952.95412,758.52736
2952.95412,755.89606
2952.95412,758.52736
2954.56988,757.21171
2954.56988,757.21171
2956.18563,757.21171
2956.18563,757.21171
2957.80139,757.21171
2957.80139,757.21171
2959.41715,757.86953
2959.41715,757.86953
2961.0329,757.86953
2961.0329,757.86953
2962.64866,758.52736
2962.64866,758.52736
2964.26441,758.52736
2964.26441,758.52736
2965.88017,758.52736
2965.88017,758.52736
2967.49593,758.52736
2967.49593,758.52736
2969.11168,759.18518
2969.11168,759.18518
2970.72744,759.84301
2970.72744,759.84301
2972.34319,760.50083
2972.34319,760.50083
2973.95895,761.15865
2973.95895,761.15865
2975.5747,762.4743
2975.5747,762.4743
2977.19046,763.13213
2977.19046,763.13213
2978.80622,763.13213
2978.80622,763.13213
2980.42197,761.81648
2980.42197,761.81648
2982.03773,761.15865
2982.03773,761.15865
2983.65348,760.50083
2983.65348,760.50083
2985.26924,759.18518
2985.26924,759.18518
2986.88499,758.52736
2986.88499,758.52736
2988.50075,758.52736
2988.50075,758.52736
2990.11651,759.18518
2990.11651,759.18518
2991.73226,759.18518
2991.73226,759.18518
2993.34802,760.50083
2993.34802,760.50083
2994.96377,762.4743
2994.96377,762.4743
2996.57953,763.78995
2996.57953,763.78995
2998.19528,765.1056
2998.19528,765.1056
2999.81104,767.07907
2999.81104,767.07907
3001.4268,769.71037
3001.4268,769.71037
3003.04255,771.02602
3003.04255,771.02602
3004.65831,772.99949
3004.65831,772.99949
3006.27406,774.31514
3006.27406,774.31514
3007.88982,775.63079
3007.88982,775.63079
3009.50558,775.63079
3009.50558,775.63079
3011.12133,775.63079
3011.12133,775.63079
3012.73709,774.31514
3012.73709,774.31514
3014.35284,772.99949
3014.35284,772.99949
3015.9686,771.02602
3015.9686,771.02602
3017.58435,769.05255
3017.58435,769.05255
3019.20011,767.07907
3019.20011,767.07907
3020.81587,765.76343
3020.81587,765.76343
3022.43162,765.1056
3022.43162,765.1056
3024.04738,764.44778
3024.04738,764.44778
3025.66313,765.1056
3025.66313,765.1056
3027.27889,765.76343
3027.27889,765.76343
3028.89464,767.07907
3028.89464,767.07907
3030.5104,768.39472
3030.5104,768.39472
3032.12616,769.71037
3033.74191,771.02602
3035.35767,772.99949
3036.97342,774.31514
3038.58918,775.63079
3040.20494,775.63079
3041.82069,774.97297
3043.43645,774.31514
3045.0522,772.99949
3046.66796,771.68385
3048.28371,770.3682
3049.89947,769.71037
3051.51523,767.7369
3053.13098,766.42125
3054.74674,765.1056
3056.36249,765.1056
3057.97825,765.1056
3059.594,766.42125
3061.20976,767.7369
3062.82552,768.39472
3064.44127,769.05255
3066.05703,769.05255
3067.67278,768.39472
3069.28854,767.7369
3070.90429,767.07907
3072.52005,765.76343
3074.13581,765.1056
3075.75156,764.44778
3077.36732,764.44778
3078.98307,763.78995
3080.59883,763.78995
3082.21459,763.78995
3083.83034,764.44778
3085.4461,764.44778
3087.06185,765.1056
3088.67761,765.76343
3090.29336,767.07907
3091.90912,767.7369
3093.52488,769.05255
3095.14063,770.3682
3096.75639,771.68385
3098.37214,772.34167
3099.9879,772.34167
3101.60365,770.3682
3103.21941,769.05255
3104.83517,767.07907
3106.45092,765.76343
3108.06668,764.44778
3109.68243,763.78995
3111.29819,764.44778
3112.91395,764.44778
3114.5297,765.76343
3116.14546,767.07907
3117.76121,767.7369
3119.37697,769.05255
3120.99272,769.71037
3122.60848,771.68385
3124.22424,772.34167
3125.83999,774.31514
3127.45575,775.63079
3129.0715,777.60427
3130.68726,778.91991
3132.30301,778.91991
3133.91877,777.60427
3135.53453,776.28862
3137.15028,773.65732
3138.76604,771.02602
3140.38179,769.05255
3141.99755,767.07907
3143.6133,765.1056
3145.22906,763.13213
3146.84482,762.4743
3148.46057,762.4743
3150.07633,761.81648
3151.69208,761.15865
3153.30784,760.50083
3154.9236,760.50083
3156.53935,760.50083
3158.15511,761.81648
3159.77086,762.4743
3161.38662,763.78995
3163.00237,766.42125
3164.61813,767.7369
3166.23389,769.71037
3167.84964,771.02602
3169.4654,771.02602
3171.08115,771.02602
3172.69691,770.3682
3174.31266,769.71037
3175.92842,769.05255
3177.54418,769.05255
3179.15993,768.39472
3180.77569,767.7369
3182.39144,767.07907
3184.0072,767.07907
3185.62296,767.07907
3187.23871,767.07907
3188.85447,767.7369
3190.47022,767.7369
3192.08598,767.7369
3193.70173,767.7369
3195.31749,768.39472
3196.93325,768.39472
3198.549,768.39472
3200.16476,768.39472
3201.78051,768.39472
3203.39627,768.39472
3205.01202,768.39472
3206.62778,769.05255
3208.24354,769.05255
3209.85929,769.05255
3211.47505,768.39472
3213.0908,767.7369
3214.70656,767.07907
3216.32231,766.42125
3217.93807,766.42125
3219.55383,766.42125
3221.16958,767.7369
3222.78534,768.39472
3224.40109,769.05255
3226.01685,770.3682
3227.63261,770.3682
3229.24836,769.71037
3230.86412,768.39472
3232.47987,767.7369
3234.09563,767.07907
3235.71138,766.42125
3237.32714,765.76343
3238.9429,765.76343
3240.55865,765.76343
3242.17441,765.76343
3243.79016,765.76343
3245.40592,765.76343
3247.02167,765.76343
3248.63743,765.76343
3250.25319,765.76343
3251.86894,766.42125
3253.4847,767.07907
3255.10045,767.7369
3256.71621,769.05255
3258.33197,769.71037
3259.94772,771.02602
3261.56348,771.02602
3263.17923,771.02602
3264.79499,769.71037
3266.41074,769.05255
3268.0265,768.39472
3269.64226,767.7369
3271.25801,767.7369
3272.87377,767.7369
3274.48952,767.7369
3276.10528,767.7369
3277.72103,768.39472
3279.33679,767.7369
3280.95255,767.7369
3282.5683,767.07907
3284.18406,767.7369
3285.79981,767.7369
3287.41557,769.05255
3289.03132,769.71037
3290.64708,771.02602
3292.26284,771.68385
3293.87859,772.99949
3295.49435,773.65732
3297.1101,773.65732
3298.72586,772.34167
3300.34162,772.34167
3301.95737,771.68385
3303.57313,772.34167
3305.18888,773.65732
3306.80464,774.97297
3308.42039,776.94644
3310.03615,778.26209
3311.65191,778.91991
3313.26766,779.57774
3314.88342,778.91991
3316.49917,777.60427
3318.11493,776.94644
3319.73068,775.63079
3321.34644,774.97297
3322.9622,774.31514
3324.57795,773.65732
3326.19371,772.34167
3327.80946,771.02602
3329.42522,769.71037
3331.04098,767.7369
3332.65673,766.42125
3334.27249,763.78995
3335.88824,763.78995
3337.504,763.13213
3339.11975,765.1056
3340.73551,767.07907
3342.35127,770.3682
3343.96702,772.34167
3345.58278,774.31514
3347.19853,776.28862
3348.81429,775.63079
3350.43004,775.63079
3352.0458,774.97297
3353.66156,774.31514
3355.27731,773.65732
3356.89307,773.65732
3358.50882,772.99949
3360.12458,771.68385
3361.74033,770.3682
3363.35609,768.39472
3364.97185,767.07907
3366.5876,764.44778
3368.20336,763.13213
3369.81911,761.15865
3371.43487,760.50083
3373.05063,760.50083
3374.66638,761.15865
3376.28214,762.4743
3377.89789,763.78995
3379.51365,764.44778
3381.1294,765.1056
3382.74516,765.76343
3384.36092,765.76343
3385.97667,765.76343
3387.59243,765.76343
3389.20818,765.76343
3390.82394,765.1056
3392.43969,765.1056
3394.05545,765.1056
3395.67121,764.44778
3397.28696,763.78995
3398.90272,763.13213
3400.51847,762.4743
3402.13423,761.81648
3403.74999,761.15865
3405.36574,761.81648
3406.9815,762.4743
3408.59725,763.13213
3410.21301,763.78995
3411.82876,764.44778
3413.44452,765.1056
3415.06028,766.42125
3416.67603,766.42125
3418.29179,767.07907
3419.90754,767.07907
3421.5233,767.07907
3423.13905,766.42125
3424.75481,765.76343
3426.37057,765.1056
3427.98632,765.1056
3429.60208,763.78995
3431.21783,763.13213
3432.83359,762.4743
3434.44934,762.4743
3436.0651,762.4743
3437.68086,763.13213
3439.29661,763.78995
3440.91237,765.76343
3442.52812,767.7369
3444.14388,769.05255
3445.75964,770.3682
3447.37539,771.68385
3448.99115,772.34167
3450.6069,772.34167
3452.22266,771.68385
3453.83841,770.3682
3455.45417,768.39472
3457.06993,767.7369
3458.68568,765.76343
3460.30144,763.78995
3461.91719,762.4743
3463.53295,761.15865
3465.1487,759.18518
3466.76446,757.86953
3468.38022,757.21171
3469.99597,755.89606
3471.61173,755.89606
3473.22748,756.55388
3474.84324,757.21171
3476.459,757.86953
3478.07475,759.18518
3479.69051,760.50083
3481.30626,761.81648
3482.92202,763.13213
3484.53777,764.44778
3486.15353,765.76343
3487.76929,766.42125
3489.38504,766.42125
3491.0008,765.1056
3492.61655,763.78995
3494.23231,762.4743
3495.84806,761.81648
3497.46382,760.50083
3499.07958,759.18518
3500.69533,758.52736
3502.31109,757.21171
3503.92684,757.21171
3505.5426,757.21171
3507.15835,757.86953
3508.77411,758.52736
3510.38987,760.50083
3512.00562,767.07907
3512.00562,761.81648
3513.62138,763.78995
3515.23713,765.76343
3516.85289,769.05255
3518.46865,771.02602
3520.0844,772.99949
3521.70016,774.97297
3523.31591,776.28862
3524.93167,776.94644
3526.54742,776.94644
3528.16318,776.28862
3529.77894,774.97297
3531.39469,773.65732
3533.01045,771.68385
3534.6262,769.71037
3536.24196,767.7369
3537.85771,765.76343
3539.47347,764.44778
3541.08923,762.4743
3542.70498,761.81648
3544.32074,761.15865
3545.93649,761.15865
3547.55225,761.81648
3549.16801,762.4743
3550.78376,763.78995
3552.39952,765.1056
3554.01527,766.42125
3555.63103,767.7369
3557.24678,769.05255
3558.86254,770.3682
3560.4783,771.68385
3562.09405,772.99949
3563.70981,773.65732
3565.32556,774.97297
3566.94132,775.63079
3568.55707,776.28862
3570.17283,776.28862
3571.78859,776.28862
3573.40434,776.28862
3575.0201,776.28862
3576.63585,775.63079
3578.25161,775.63079
3579.86736,775.63079
3581.48312,775.63079
3583.09888,775.63079
3584.71463,776.28862
3586.33039,776.28862
3587.94614,776.28862
3589.5619,776.94644
3591.17766,776.94644
3592.79341,776.94644
3594.40917,777.60427
3596.02492,777.60427
3597.64068,778.26209
3599.25643,778.26209
3600.87219,778.91991
3602.48795,778.91991
3604.1037,778.26209
3605.71946,777.60427
3607.33521,776.94644
3608.95097,775.63079
3610.56672,775.63079
3612.18248,774.31514
3613.79824,773.65732
3615.41399,773.65732
3617.02975,773.65732
3618.6455,773.65732
3620.26126,773.65732
3621.87702,774.31514
3623.49277,774.31514
3625.10853,774.97297
3626.72428,774.97297
3628.34004,774.31514
3629.95579,773.65732
3631.57155,772.99949
3633.18731,771.02602
3634.80306,769.71037
3636.41882,768.39472
3638.03457,767.07907
3639.65033,765.76343
3641.26608,764.44778
3642.88184,763.78995
3644.4976,762.4743
3646.11335,762.4743
3647.72911,762.4743
3649.34486,763.13213
3650.96062,763.78995
3652.57637,763.78995
3654.19213,763.78995
3655.80789,764.44778
3657.42364,764.44778
3659.0394,765.1056
3660.65515,765.76343
3662.27091,766.42125
3663.88667,767.07907
3665.50242,767.7369
3667.11818,769.05255
3668.73393,771.02602
3670.34969,771.68385
3671.96544,773.65732
3673.5812,774.31514
3675.19696,775.63079
3676.81271,776.28862
3678.42847,776.94644
3680.04422,776.94644
3681.65998,776.94644
3683.27573,774.97297
3684.89149,773.65732
3686.50725,772.34167
3688.123,769.71037
3689.73876,767.7369
3691.35451,765.76343
3692.97027,759.18518
3692.97027,763.78995
3692.97027,758.52736
3694.58603,761.81648
3694.58603,759.84301
3696.20178,759.84301
3696.20178,760.50083
3697.81754,761.15865
3697.81754,759.84301
3699.43329,759.84301
3699.43329,761.15865
3701.04905,762.4743
3701.04905,761.15865
3701.04905,760.50083
3702.6648,761.15865
3702.6648,761.81648
3702.6648,762.4743
3702.6648,763.78995
3704.28056,763.13213
3704.28056,763.78995
3704.28056,762.4743
3704.28056,765.76343
3704.28056,765.1056
3704.28056,764.44778
3704.28056,765.1056
3705.89632,766.42125
3705.89632,766.42125
3707.51207,766.42125
3707.51207,768.39472
3709.12783,766.42125
3709.12783,770.3682
3710.74358,767.7369
3710.74358,771.68385
3710.74358,768.39472
3710.74358,767.07907
3712.35934,771.02602
3712.35934,774.31514
3712.35934,771.68385
3712.35934,769.05255
3712.35934,769.71037
3712.35934,770.3682
3712.35934,772.34167
3713.97509,776.28862
3713.97509,778.91991
3713.97509,772.99949
3715.59085,778.26209
3715.59085,777.60427
3715.59085,776.28862
3715.59085,773.65732
3715.59085,774.31514
3715.59085,774.97297
3715.59085,778.91991
3715.59085,775.63079
3717.20661,777.60427
3717.20661,778.91991
3717.20661,779.57774
3717.20661,776.94644
3718.82236,780.89339
3718.82236,782.20904
3718.82236,781.55121
3718.82236,780.89339
3718.82236,780.23556
3718.82236,778.91991
3718.82236,779.57774
3720.43812,782.20904
3720.43812,781.55121
3722.05387,781.55121
3722.05387,782.20904
3723.66963,782.20904
3723.66963,781.55121
3725.28538,781.55121
3725.28538,781.55121
3726.90114,782.20904
3726.90114,781.55121
3728.5169,782.20904
3728.5169,781.55121
3730.13265,781.55121
3730.13265,781.55121
3731.74841,781.55121
3731.74841,780.89339
3733.36416,781.55121
3733.36416,780.23556
3734.97992,782.20904
3734.97992,780.89339
3736.59568,780.89339
3736.59568,783.52469
3736.59568,782.86686
3736.59568,781.55121
3736.59568,782.20904
3736.59568,782.20904
3738.21143,783.52469
3738.21143,782.86686
3739.82719,783.52469
3739.82719,783.52469
3741.44294,783.52469
3741.44294,784.18251
3743.0587,783.52469
3743.0587,785.49816
3744.67445,783.52469
3744.67445,784.18251
3744.67445,784.84033
3744.67445,786.81381
3746.29021,785.49816
3746.29021,784.84033
3746.29021,788.12946
3747.90597,787.47163
3747.90597,786.15598
3747.90597,788.78728
3747.90597,789.44511
3747.90597,790.10293
3747.90597,788.12946
3747.90597,790.76075
3747.90597,788.78728
3747.90597,786.81381
3749.52172,791.41858
3749.52172,790.10293
3751.13748,790.76075
3751.13748,791.41858
3752.75323,790.76075
3754.36899,790.10293
3755.98474,789.44511
3755.98474,788.78728
3757.6005,788.12946
3759.21626,788.12946
3759.21626,787.47163
3760.83201,787.47163
3760.83201,786.81381
3762.44777,786.81381
3762.44777,786.15598
3764.06352,786.15598
3764.06352,785.49816
3765.67928,785.49816
3767.29504,785.49816
3767.29504,784.84033
3768.91079,784.84033
3770.52655,784.18251
3770.52655,784.84033
3772.1423,784.18251
3772.1423,783.52469
3773.75806,782.86686
3775.37381,782.86686
3776.98957,782.20904
3776.98957,784.18251
3776.98957,782.86686
3778.60533,782.20904
3778.60533,783.52469
3780.22108,783.52469
3780.22108,782.20904
3781.83684,782.20904
3781.83684,782.20904
3783.45259,782.20904
3783.45259,781.55121
3785.06835,782.20904
3785.06835,780.89339
3785.06835,781.55121
3786.6841,781.55121
3786.6841,779.57774
3786.6841,780.89339
3788.29986,778.26209
3788.29986,780.89339
3788.29986,780.23556
3789.91562,779.57774
3789.91562,778.91991
3789.91562,778.26209
3789.91562,780.23556
3789.91562,776.94644
3791.53137,777.60427
3791.53137,774.97297
3793.14713,774.31514
3793.14713,775.63079
3793.14713,776.94644
3793.14713,776.28862
3794.76288,775.63079
3794.76288,772.99949
3794.76288,771.68385
3794.76288,771.02602
3794.76288,773.65732
3794.76288,772.34167
3794.76288,772.99949
3794.76288,774.97297
3794.76288,774.31514
3796.37864,770.3682
3796.37864,771.68385
3797.99439,769.05255
3797.99439,770.3682
3797.99439,770.3682
3799.61015,770.3682
3799.61015,769.71037
3799.61015,770.3682
3799.61015,767.7369
3799.61015,768.39472
3801.22591,770.3682
3802.84166,770.3682
3804.45742,771.68385
3806.07317,772.34167
3807.68893,772.99949
3809.30469,772.99949
3810.92044,773.65732
3812.5362,773.65732
3814.15195,773.65732
3815.76771,772.99949
3817.38346,772.99949
3818.99922,772.99949
3820.61498,772.34167
3822.23073,772.34167
3823.84649,771.02602
3825.46224,770.3682
3827.078,769.05255
3828.69375,767.7369
3830.30951,767.07907
3831.92527,765.76343
3833.54102,765.1056
3835.15678,764.44778
3836.77253,764.44778
3838.38829,764.44778
3840.00405,764.44778
3841.6198,763.13213
3843.23556,763.13213
3844.85131,761.81648
3846.46707,761.15865
3848.08282,761.15865
3849.69858,760.50083
3851.31434,760.50083
3852.93009,760.50083
3854.54585,761.15865
3856.1616,761.15865
3857.77736,760.50083
3859.39311,760.50083
3861.00887,759.84301
3862.62463,759.18518
3864.24038,759.18518
3865.85614,759.18518
3867.47189,759.84301
3869.08765,759.84301
3870.7034,760.50083
3872.31916,761.15865
3873.93492,761.81648
3875.55067,762.4743
3877.16643,763.13213
3878.78218,764.44778
3880.39794,765.1056
3882.0137,765.76343
3883.62945,767.07907
3885.24521,767.7369
3886.86096,768.39472
3888.47672,768.39472
3890.09247,768.39472
3891.70823,767.07907
3893.32399,765.76343
3894.93974,764.44778
3896.5555,763.13213
3898.17125,761.81648
3899.78701,760.50083
3901.40276,759.84301
3903.01852,759.84301
3904.63428,759.84301
3906.25003,761.15865
3907.86579,761.81648
3909.48154,763.13213
3911.0973,765.1056
3912.71306,766.42125
3914.32881,768.39472
3915.94457,769.71037
3917.56032,771.02602
3919.17608,771.68385
3920.79183,772.34167
3922.40759,772.99949
3924.02335,772.99949
3925.6391,772.99949
3927.25486,772.99949
3928.87061,772.34167
3930.48637,772.34167
3932.10212,771.68385
3933.71788,771.02602
3935.33364,771.02602
3936.94939,771.02602
3938.56515,771.68385
3940.1809,772.34167
3941.79666,773.65732
3943.41241,773.65732
3945.02817,772.99949
3946.64393,772.34167
3948.25968,771.02602
3949.87544,769.05255
3951.49119,767.7369
3953.10695,766.42125
3954.72271,764.44778
3956.33846,763.13213
3957.95422,761.81648
3959.56997,761.15865
3961.18573,761.15865
3962.80148,762.4743
3964.41724,763.13213
3966.033,765.1056
3967.64875,766.42125
3969.26451,767.7369
3970.88026,769.05255
3972.49602,769.71037
3974.11177,769.71037
3975.72753,769.71037
3977.34329,770.3682
3978.95904,770.3682
3980.5748,770.3682
3982.19055,770.3682
3983.80631,769.71037
3985.42207,768.39472
3987.03782,767.7369
3988.65358,767.07907
3990.26933,765.76343
3991.88509,765.1056
3993.50084,764.44778
3995.1166,765.1056
3996.73236,766.42125
