Raman Shift,Intensity
129.534,17208.0
130.922,17203.0
132.309,17492.0
133.696,17289.0
135.083,17618.0
136.47,17669.0
137.857,18009.0
139.243,18270.0
140.63,18591.0
142.016,18525.0
143.401,18560.0
144.787,18664.0
146.172,18857.0
147.557,19097.0
148.942,19114.582
150.327,19319.0
151.711,19292.0
153.096,19549.0
154.48,19854.0
155.863,19852.0
157.247,19870.0
158.63,19960.0
160.013,20182.0
161.396,19977.0
162.779,20044.0
164.161,20102.0
165.544,19853.0
166.926,19542.0
168.308,19459.0
169.689,19312.0
171.07,19005.0
172.452,18658.0
173.833,18492.0
175.213,18359.0
176.594,18206.0
177.974,18080.0
179.354,17827.0
180.734,18207.0
182.114,18378.0
183.493,18583.0
184.872,19171.0
186.251,20156.0
187.63,21225.0
189.008,22739.0
190.387,24168.0
191.765,25962.0
193.143,27825.0
194.52,29201.0
195.898,30104.0
197.275,30210.0
198.652,30308.0
200.029,29925.658
201.405,28494.0
202.782,28022.0
204.158,26605.0
205.534,24570.0
206.909,23582.0
208.285,22689.0
209.66,21639.0
211.035,20904.0
212.41,19733.0
213.784,18869.0
215.159,18470.0
216.533,17995.0
217.907,17813.0
219.281,17428.0
220.654,17161.0
222.027,16850.0
223.4,16634.0
224.773,16421.0
226.146,16185.0
227.518,16064.0
228.891,15888.0
230.263,15782.0
231.634,15623.0
233.006,15588.0
234.377,15546.0
235.748,15412.0
237.119,15342.0
238.49,15190.0
239.86,15082.0
241.231,15050.0
242.601,14929.0
243.97,14912.0
245.34,14780.0
246.709,14670.0
248.079,14636.0
249.448,14546.0
250.816,14711.0
252.185,14442.0
253.553,14458.0
254.921,14561.0
256.289,14434.0
257.657,14696.0
259.024,14656.0
260.391,14693.0
261.758,14681.0
263.125,14758.929
264.492,14882.0
265.858,14945.0
267.224,15115.0
268.59,15225.0
269.956,15516.0
271.321,15574.0
272.687,15866.0
274.052,16071.0
275.416,16022.0
276.781,16065.0
278.146,16065.0
279.51,16032.0
280.874,15756.0
282.237,15683.0
283.601,15344.0
284.964,15216.0
286.327,14921.0
287.69,14674.0
289.053,14752.0
290.416,14437.0
291.778,14378.0
293.14,14422.0
294.502,14225.0
295.863,14331.0
297.225,14261.0
298.586,14252.0
299.947,14219.0
301.308,14146.0
302.668,14243.0
304.029,14334.0
305.389,14228.0
306.749,14412.0
308.108,14394.0
309.468,14398.0
310.827,14611.0
312.186,14520.0
313.545,14634.0
314.903,14679.0
316.262,14611.0
317.62,15065.0
318.978,14873.0
320.336,15024.0
321.693,15292.0
323.051,15222.0
324.408,15392.0
325.765,15749.0
327.121,15727.0
328.478,15864.783
329.834,15902.0
331.19,15925.0
332.546,16354.0
333.902,16409.0
335.257,16508.0
336.612,17020.0
337.967,17212.0
339.322,17459.0
340.677,17370.0
342.031,17433.0
343.385,17708.0
344.739,17715.0
346.093,18207.0
347.446,18277.0
348.799,18507.0
350.153,18643.0
351.505,18954.0
352.858,19275.0
354.21,19506.0
355.563,19606.0
356.915,19633.0
358.267,19922.0
359.618,19739.0
360.969,19984.0
362.321,19812.0
363.672,19902.0
365.022,19386.0
366.373,19127.0
367.723,18908.0
369.073,18347.0
370.423,18227.0
371.773,17811.0
373.122,17542.0
374.471,17190.0
375.821,17028.0
377.169,16958.0
378.518,16656.0
379.866,16534.0
381.215,16253.0
382.563,16273.0
383.91,16172.0
385.258,15909.0
386.605,15795.0
387.952,15784.0
389.299,15857.0
390.646,15666.0
391.992,15574.0
393.339,15618.0
394.685,15523.0
396.031,15497.0
397.376,15364.0
398.722,15584.0
400.067,15453.575
401.412,15548.0
402.757,15429.0
404.101,15446.0
405.446,15536.0
406.79,15577.0
408.134,15446.0
409.478,15399.0
410.821,15515.0
412.165,15602.0
413.508,15466.0
414.851,15460.0
416.193,15682.0
417.536,15722.0
418.878,15726.0
420.22,15836.0
421.562,15832.0
422.904,15984.0
424.245,15912.0
425.586,16074.0
426.927,16182.0
428.268,16204.0
429.609,16311.0
430.949,16351.0
432.289,16270.0
433.629,16433.0
434.969,16364.821
436.309,16386.986
437.648,16348.0
438.987,16359.0
440.326,16388.0
441.665,16316.0
443.003,16301.243
444.342,16208.0
445.68,16208.0
447.018,16085.0
448.355,16054.0
449.693,16088.0
451.03,15764.0
452.367,15856.0
453.704,15736.0
455.041,15910.0
456.377,15585.0
457.713,15668.0
459.049,15713.0
460.385,15631.0
461.721,15715.0
463.056,15742.0
464.391,15589.0
465.726,15484.0
467.061,15406.0
468.395,15585.0
469.73,15486.0
471.064,15317.0
472.398,15418.0
473.731,15223.0
475.065,15343.0
476.398,15287.0
477.731,15139.0
479.064,15219.0
480.397,15397.0
481.729,15434.0
483.062,15416.0
484.394,15323.0
485.725,15346.0
487.057,15411.0
488.389,15421.0
489.72,15511.0
491.051,15529.438
492.382,15385.0
493.712,15639.0
495.043,15627.0
496.373,15781.0
497.703,15666.0
499.032,15797.0
500.362,15824.0
501.691,15908.0
503.02,15854.0
504.349,16095.0
505.678,15995.0
507.007,16204.0
508.335,16192.0
509.663,16242.0
510.991,16276.0
512.319,16552.0
513.646,16645.0
514.973,16651.0
516.3,16802.0
517.627,16828.0
518.954,16818.0
520.28,16932.959
521.607,17042.0
522.933,17040.0
524.259,17174.0
525.584,17157.0
526.91,17306.0
528.235,17220.0
529.56,17300.0
530.885,17274.0
532.209,17363.0
533.534,17186.0
534.858,17225.0
536.182,17136.0
537.506,17105.0
538.829,17122.0
540.152,17363.0
541.476,16851.0
542.799,16651.0
544.121,17020.0
545.444,16357.0
546.766,16726.0
548.088,16621.0
549.41,16602.0
550.732,16696.0
552.053,16676.0
553.375,16689.0
554.696,16622.0
556.017,16513.0
557.337,16491.0
558.658,16501.0
559.978,16590.0
561.298,16389.0
562.618,16271.0
563.938,16320.0
565.257,16164.0
566.576,16116.0
567.895,16216.0
569.214,15920.0
570.533,15913.0
571.851,15894.0
573.17,15858.0
574.488,15848.0
575.805,15849.0
577.123,15781.0
578.44,15703.0
579.758,15872.0
581.075,15744.0
582.391,15979.0
583.708,15792.0
585.024,15876.0
586.341,15845.0
587.657,15863.0
588.972,15988.0
590.288,15987.0
591.603,16077.0
592.918,16017.0
594.233,16104.176
595.548,16172.0
596.863,16211.0
598.177,16235.0
599.491,16250.0
600.805,16350.0
602.119,16306.0
603.432,16313.0
604.746,16457.0
606.059,16459.0
607.372,16491.0
608.685,16451.0
609.997,16522.0
611.309,16488.811
612.621,16407.0
613.933,16505.0
615.245,16607.0
616.557,16725.0
617.868,16821.0
619.179,16952.0
620.49,16908.0
621.801,17234.0
623.111,16913.0
624.421,17396.0
625.731,17236.0
627.041,17649.0
628.351,17440.0
629.66,18024.0
630.97,18006.0
632.279,18132.0
633.588,18666.0
634.896,18756.0
636.205,18950.0
637.513,19346.0
638.821,19904.0
640.129,20451.0
641.437,20857.0
642.744,21510.0
644.051,22039.0
645.358,22547.0
646.665,23134.0
647.972,23804.0
649.278,24649.0
650.584,24814.0
651.89,25467.0
653.196,25258.0
654.502,25884.0
655.807,25614.0
657.113,25702.0
658.418,25333.0
659.722,25233.0
661.027,25298.0
662.331,24904.0
663.636,24522.0
664.94,24294.0
666.244,24437.0
667.547,24013.0
668.851,24147.0
670.154,23909.0
671.457,24228.0
672.76,23839.0
674.062,23892.0
675.365,24017.0
676.667,23956.0
677.969,24073.0
679.271,24119.984
680.572,24294.0
681.874,24288.0
683.175,24311.0
684.476,24475.0
685.777,24357.0
687.077,24185.0
688.378,24059.0
689.678,23468.0
690.978,23534.0
692.278,23267.0
693.577,22769.0
694.877,22011.0
696.176,22180.0
697.475,21423.0
698.774,21286.0
700.072,20874.0
701.371,20570.0
702.669,20178.0
703.967,20239.0
705.265,19587.0
706.562,19631.0
707.86,19216.0
709.157,19115.0
710.454,18770.0
711.751,18632.0
713.047,18497.0
714.344,18604.0
715.64,18313.0
716.936,18513.0
718.232,18130.0
719.527,18248.0
720.823,18208.0
722.118,18200.0
723.413,18158.0
724.708,18050.0
726.002,18058.0
727.297,17886.0
728.591,18203.0
729.885,17843.0
731.179,18022.0
732.472,18152.0
733.766,18041.0
735.059,17802.0
736.352,17815.0
737.645,17886.0
738.937,17993.0
740.23,17947.852
741.522,18036.0
742.814,17945.0
744.106,17942.0
745.397,18053.0
746.689,18080.0
747.98,17951.0
749.271,17966.0
750.562,18228.0
751.853,17860.0
753.143,18322.0
754.433,17981.0
755.723,18384.0
757.013,18048.0
758.303,18125.0
759.592,18360.0
760.881,18185.0
762.17,18264.0
763.459,18354.0
764.748,18659.0
766.036,18444.0
767.325,18462.0
768.613,18569.0
769.901,18436.0
771.188,18635.0
772.476,18657.0
773.763,18451.0
775.05,18790.0
776.337,18664.0
777.624,18769.0
778.91,18914.0
780.196,18794.0
781.482,18953.0
782.768,19001.0
784.054,19109.0
785.339,19343.0
786.625,19516.0
787.91,19372.0
789.195,19072.0
790.479,19121.0
791.764,19153.0
793.048,19058.0
794.332,19312.0
795.616,19166.0
796.9,19234.0
798.183,19297.0
799.467,19097.0
800.75,19053.0
802.033,19155.0
803.316,19114.0
804.598,19153.0
805.88,19650.0
807.163,19179.0
808.445,19484.0
809.726,19279.0
811.008,19382.0
812.289,19347.0
813.57,19353.0
814.851,19434.0
816.132,19434.0
817.413,19501.0
818.693,19542.0
819.973,19497.0
821.253,19568.0
822.533,19584.0
823.813,19634.0
825.092,19681.629
826.371,19644.65
827.65,19807.0
828.929,19667.0
830.208,19786.0
831.486,20019.0
832.764,19958.0
834.042,19906.0
835.32,19914.0
836.598,20307.0
837.875,20090.0
839.152,20323.0
840.429,20120.0
841.706,20332.0
842.983,20536.0
844.259,20254.0
845.536,20521.0
846.812,20484.0
848.088,20390.0
849.363,20623.0
850.639,20336.0
851.914,20594.0
853.189,20625.0
854.464,20194.0
855.739,20700.0
857.013,21169.0
858.288,20883.0
859.562,20589.0
860.836,20635.0
862.11,20877.0
863.383,20960.0
864.656,20702.0
865.93,21031.0
867.203,20819.0
868.475,21094.0
869.748,21195.0
871.02,21058.0
872.292,21060.0
873.564,21246.0
874.836,21066.0
876.108,21236.0
877.379,20951.0
878.65,21105.0
879.922,21363.0
881.192,21248.0
882.463,21151.0
883.733,21329.0
885.004,21321.0
886.274,21288.0
887.544,21440.0
888.813,21494.0
890.083,21594.0
891.352,21625.141
892.621,21649.0
893.89,21653.0
895.159,21504.0
896.427,21510.0
897.695,21331.0
898.964,21506.0
900.232,21500.0
901.499,21214.0
902.767,21516.0
904.034,21399.0
905.301,21750.0
906.568,21497.691
907.835,21743.523
909.102,21868.436
910.368,21878.951
911.634,21432.34
912.9,21568.0
914.166,21520.0
915.432,21483.0
916.697,21611.0
917.962,21510.0
919.227,21534.734
920.492,21520.0
921.757,21448.0
923.021,21485.0
924.285,21338.0
925.55,21638.0
926.813,21497.0
928.077,21537.0
929.341,21477.0
930.604,21448.0
931.867,21579.0
933.13,21552.0
934.393,21363.0
935.655,21394.0
936.918,21542.0
938.18,21278.0
939.442,21656.0
940.703,21376.0
941.965,21316.0
943.226,21601.0
944.488,21505.0
945.749,21515.0
947.009,21501.0
948.27,21832.0
949.53,21537.0
950.791,21696.0
952.051,21724.0
953.311,21607.0
954.57,21672.0
955.83,21602.0
957.089,21922.0
958.348,21840.0
959.607,21980.0
960.866,21715.0
962.124,22245.0
963.383,22584.0
964.641,22277.0
965.899,22400.0
967.156,22394.0
968.414,22674.0
969.671,22663.0
970.928,22528.0
972.185,22736.0
973.442,22427.0
974.699,22648.0
975.955,22618.0
977.211,22561.0
978.468,22749.0
979.723,22776.0
980.979,22929.0
982.234,22900.0
983.49,22858.0
984.745,23236.0
986.0,22693.0
987.254,23385.0
988.509,23298.0
989.763,23000.0
991.017,23386.0
992.271,23271.0
993.525,23226.0
994.779,23462.0
996.032,23370.0
997.285,23523.0
998.538,23314.0
999.791,23415.0
1001.044,23149.0
1002.296,23415.0
1003.548,23260.0
1004.8,23431.0
1006.052,23426.0
1007.304,23660.0
1008.555,23671.0
1009.807,23619.0
1011.058,24017.0
1012.309,24350.0
1013.559,24182.0
1014.81,24294.0
1016.06,24467.0
1017.31,24537.0
1018.56,24659.0
1019.81,24603.0
1021.06,24539.0
1022.309,24644.0
1023.558,24842.0
1024.807,24602.0
1026.056,24865.0
1027.305,24766.0
1028.553,24631.0
1029.801,24694.0
1031.049,24627.086
1032.297,24697.0
1033.545,24682.0
1034.793,24669.0
1036.04,24800.0
1037.287,24490.0
1038.534,24536.0
1039.781,24625.0
1041.027,24697.0
1042.274,24796.0
1043.52,24590.0
1044.766,24604.0
1046.012,24693.127
1047.257,24734.0
1048.503,24889.0
1049.748,25120.0
1050.993,25193.0
1052.238,25236.0
1053.483,25596.0
1054.727,25753.0
1055.971,25667.0
1057.216,25847.0
1058.459,26026.0
1059.703,26408.0
1060.947,26576.0
1062.19,26265.0
1063.433,26682.0
1064.676,26614.0
1065.919,26515.0
1067.162,26590.0
1068.404,26456.0
1069.646,26724.0
1070.888,26419.0
1072.13,26611.0
1073.372,26577.0
1074.613,26441.0
1075.855,26545.0
1077.096,26598.0
1078.337,26400.0
1079.578,26452.0
1080.818,26399.0
1082.059,26124.0
1083.299,26113.0
1084.539,25675.0
1085.779,25841.0
1087.018,25424.0
1088.258,25417.0
1089.497,25454.0
1090.736,25052.0
1091.975,24748.0
1093.213,24938.0
1094.452,24541.0
1095.69,24292.0
1096.928,24434.0
1098.166,24112.0
1099.404,24027.0
1100.642,24011.0
1101.879,24200.0
1103.116,23659.0
1104.353,23852.0
1105.59,23498.0
1106.827,23758.0
1108.063,23505.0
1109.299,23848.0
1110.536,23493.0
1111.771,23713.0
1113.007,23703.0
1114.243,23612.0
1115.478,23761.0
1116.713,23861.0
1117.948,23846.0
1119.183,23904.0
1120.418,23916.0
1121.652,23850.0
1122.886,23987.0
1124.12,24053.0
1125.354,24014.0
1126.588,23756.0
1127.821,23498.0
1129.055,23494.0
1130.288,23341.0
1131.521,23416.0
1132.753,23301.0
1133.986,23277.0
1135.218,22934.0
1136.45,23043.0
1137.682,23363.0
1138.914,23051.0
1140.146,23439.0
1141.377,23199.0
1142.609,23363.0
1143.84,23284.0
1145.071,23128.0
1146.301,23244.0
1147.532,23197.0
1148.762,23248.0
1149.992,23244.0
1151.222,23250.516
1152.452,23276.836
1153.682,23275.0
1154.911,23302.0
1156.14,23311.348
1157.369,23310.0
1158.598,23291.0
1159.827,23344.0
1161.055,23290.0
1162.284,23825.0
1163.512,23691.0
1164.74,23958.0
1165.967,23923.0
1167.195,24232.0
1168.422,24069.225
1169.65,23691.0
1170.877,23674.0
1172.103,23872.0
1173.33,23510.0
1174.557,23600.0
1175.783,23420.0
1177.009,23658.0
1178.235,23885.0
1179.461,23420.0
1180.686,23842.0
1181.912,23730.0
1183.137,23713.0
1184.362,23990.0
1185.587,23904.0
1186.811,23808.0
1188.036,23830.0
1189.26,23813.0
1190.484,23910.0
1191.708,23914.0
1192.932,24102.0
1194.155,24216.0
1195.378,24208.232
1196.602,23864.0
1197.825,24124.0
1199.047,24131.0
1200.27,23903.0
1201.492,24183.0
1202.715,24102.0
1203.937,24200.0
1205.159,23928.0
1206.38,24400.0
1207.602,24161.0
1208.823,24371.0
1210.044,24259.0
1211.265,24334.0
1212.486,24473.0
1213.707,24305.0
1214.927,24326.0
1216.147,24418.0
1217.367,24512.0
1218.587,24487.0
1219.807,24544.0
1221.027,24501.0
1222.246,24436.0
1223.465,24541.0
1224.684,24434.0
1225.903,24589.0
1227.121,24787.0
1228.34,24738.0
1229.558,24826.256
1230.776,24799.0
1231.994,24788.0
1233.212,24826.0
1234.429,24740.0
1235.646,25232.0
1236.864,25080.0
1238.081,25169.0
1239.297,25660.0
1240.514,25114.0
1241.73,25128.0
1242.947,25558.0
1244.163,25241.0
1245.378,25323.0
1246.594,25400.0
1247.81,25628.0
1249.025,25457.0
1250.24,25192.0
1251.455,25665.0
1252.67,25610.0
1253.885,25718.0
1255.099,26299.0
1256.313,26032.0
1257.527,25690.0
1258.741,25674.0
1259.955,26127.0
1261.168,26054.0
1262.382,25822.0
1263.595,26214.0
1264.808,26158.0
1266.021,26200.0
1267.233,26271.734
1268.446,26374.0
1269.658,26220.0
1270.87,26252.0
1272.082,26228.0
1273.294,26243.945
1274.505,26429.0
1275.716,26348.0
1276.928,26563.0
1278.139,26615.0
1279.349,26739.0
1280.56,26954.0
1281.77,26858.0
1282.981,26992.0
1284.191,26910.0
1285.401,26932.0
1286.61,27328.0
1287.82,27190.0
1289.029,27378.0
1290.239,27705.0
1291.448,27363.0
1292.656,27974.0
1293.865,27960.0
1295.073,28265.0
1296.282,28572.0
1297.49,28768.0
1298.698,29046.0
1299.906,29356.0
1301.113,29593.0
1302.32,29681.0
1303.528,29803.0
1304.735,29925.0
1305.942,30056.0
1307.148,29812.0
1308.355,29900.0
1309.561,29850.0
1310.767,29846.0
1311.973,29471.334
1313.179,29057.0
1314.384,28900.0
1315.59,28436.0
1316.795,28369.93
1318.0,28442.0
1319.205,28243.0
1320.41,28070.0
1321.614,28080.0
1322.819,27982.0
1324.023,27864.271
1325.227,27841.0
1326.431,27593.0
1327.634,27707.0
1328.838,27493.0
1330.041,27253.0
1331.244,27186.0
1332.447,27320.0
1333.65,27239.0
1334.852,27248.0
1336.055,27232.0
1337.257,27222.0
1338.459,27040.0
1339.661,27302.0
1340.862,27147.0
1342.064,27427.0
1343.265,27314.0
1344.466,27250.0
1345.667,27450.0
1346.868,27468.0
1348.068,27475.0
1349.269,27558.0
1350.469,27477.0
1351.669,27638.0
1352.869,27636.0
1354.069,27539.0
1355.268,27845.0
1356.468,27746.896
1357.667,27686.0
1358.866,27755.0
1360.065,27832.0
1361.263,27776.0
1362.462,27876.0
1363.66,27883.0
1364.858,27696.0
1366.056,27964.0
1367.254,27721.0
1368.451,27835.0
1369.649,28056.0
1370.846,28062.0
1372.043,28104.4
1373.24,28160.0
1374.436,28026.0
1375.633,28000.0
1376.829,27896.0
1378.025,28184.0
1379.221,27944.0
1380.417,28026.0
1381.613,28016.0
1382.808,27861.0
1384.003,27998.0
1385.199,28148.0
1386.393,27897.0
1387.588,28047.0
1388.783,27907.0
1389.977,28040.0
1391.171,28017.0
1392.365,28194.0
1393.559,28062.0
1394.753,28171.0
1395.946,28294.0
1397.14,28237.0
1398.333,28424.0
1399.526,28374.0
1400.719,28562.0
1401.911,28544.0
1403.104,28590.873
1404.296,28680.0
1405.488,28691.0
1406.68,28830.0
1407.872,28966.0
1409.063,28769.0
1410.255,29027.0
1411.446,29256.0
1412.637,29088.0
1413.828,29514.0
1415.018,29598.0
1416.209,29605.0
1417.399,29896.0
1418.589,30048.0
1419.779,29932.0
1420.969,30501.0
1422.159,30385.0
1423.348,30498.0
1424.537,30392.0
1425.726,30724.0
1426.915,31027.0
1428.104,31048.0
1429.293,31448.0
1430.481,31782.0
1431.669,32279.0
1432.857,32815.516
1434.045,33526.0
1435.233,34030.0
1436.42,34691.0
1437.608,35332.418
1438.795,36148.0
1439.982,36300.0
1441.169,36524.0
1442.355,36719.0
1443.542,36595.0
1444.728,36320.0
1445.914,36266.0
1447.1,36144.0
1448.286,35926.0
1449.472,35593.0
1450.657,35284.0
1451.842,34920.0
1453.027,35227.0
1454.212,34889.0
1455.397,34688.0
1456.581,35078.0
1457.766,34256.0
1458.95,34512.0
1460.134,34582.0
1461.318,33925.0
1462.501,34146.0
1463.685,33561.0
1464.868,33234.0
1466.051,33228.0
1467.234,32757.0
1468.417,33012.0
1469.6,32337.0
1470.782,32234.0
1471.965,32186.0
1473.147,31955.0
1474.329,31338.0
1475.51,31566.0
1476.692,31518.0
1477.873,31016.0
1479.055,31261.0
1480.236,30948.0
1481.416,30826.0
1482.597,30960.0
1483.778,30597.0
1484.958,30881.0
1486.138,30642.0
1487.318,30537.0
1488.498,30454.0
1489.678,30446.119
1490.857,30353.0
1492.037,30496.0
1493.216,30426.0
1494.395,30302.0
1495.574,30475.0
1496.752,30395.0
1497.931,30256.898
1499.109,30404.031
1500.287,30481.928
1501.465,30494.309
1502.643,30244.953
1503.82,30333.586
1504.998,30318.0
1506.175,30289.0
1507.352,30450.0
1508.529,30486.0
1509.706,30474.0
1510.882,30493.0
1512.059,30554.0
1513.235,30564.617
1514.411,30656.0
1515.587,30662.0
1516.762,30659.691
1517.938,30762.0
1519.113,30630.0
1520.288,30701.0
1521.463,30628.0
1522.638,30658.0
