Raman shift,Intensity
757.02644,495.3585
758.70234,495.3585
760.37825,495.3585
762.05415,494.25544
763.73006,493.15239
765.40596,492.04933
767.08186,492.04933
768.75777,493.15239
770.43367,492.04933
772.10958,492.04933
773.78548,492.04933
775.46139,490.94627
777.13729,490.94627
778.8132,490.94627
780.4891,492.04933
782.16501,492.04933
783.84091,490.94627
785.51682,490.94627
787.19272,492.04933
788.86863,492.04933
790.54453,493.15239
792.22044,494.25544
793.89634,495.3585
795.57225,495.3585
797.24815,494.25544
798.92406,493.15239
798.92406,494.25544
800.59996,492.04933
800.59996,493.15239
802.27587,492.04933
803.95177,492.04933
803.95177,490.94627
805.62768,489.84322
805.62768,490.94627
807.30358,489.84322
808.97949,488.74016
810.65539,488.74016
812.3313,488.74016
814.0072,488.74016
815.68311,487.63711
817.35901,483.22489
817.35901,487.63711
817.35901,486.53405
817.35901,485.431
817.35901,484.32794
817.35901,482.12183
819.03492,482.12183
820.71082,481.01878
822.38673,481.01878
824.06263,482.12183
825.73854,483.22489
827.41444,484.32794
829.09035,484.32794
830.76625,484.32794
832.44216,483.22489
834.11806,484.32794
835.79397,485.431
837.46987,486.53405
839.14578,487.63711
840.82168,487.63711
842.49759,488.74016
844.17349,487.63711
845.8494,486.53405
847.5253,485.431
849.20121,484.32794
850.87711,484.32794
852.55301,485.431
854.22892,486.53405
855.90482,487.63711
857.58073,485.431
857.58073,487.63711
857.58073,486.53405
859.25663,482.12183
859.25663,484.32794
859.25663,483.22489
860.93254,482.12183
862.60844,481.01878
864.28435,481.01878
865.96025,481.01878
867.63616,482.12183
869.31206,483.22489
870.98797,484.32794
872.66387,485.431
874.33978,485.431
876.01568,485.431
877.69159,485.431
879.36749,485.431
881.0434,484.32794
882.7193,483.22489
884.39521,483.22489
884.39521,482.12183
886.07111,483.22489
887.74702,484.32794
887.74702,483.22489
889.42292,488.74016
889.42292,484.32794
889.42292,485.431
889.42292,486.53405
889.42292,487.63711
891.09883,488.74016
892.77473,488.74016
894.45064,489.84322
896.12654,488.74016
897.80245,487.63711
899.47835,486.53405
901.15426,485.431
902.83016,486.53405
904.50607,487.63711
906.18197,486.53405
907.85788,485.431
909.53378,485.431
911.20969,485.431
912.88559,485.431
914.5615,485.431
916.2374,485.431
917.91331,485.431
919.58921,485.431
921.26512,484.32794
922.94102,484.32794
924.61693,484.32794
926.29283,484.32794
927.96874,484.32794
929.64464,485.431
931.32055,484.32794
932.99645,484.32794
934.67235,484.32794
936.34826,484.32794
938.02416,484.32794
939.70007,483.22489
941.37597,483.22489
943.05188,484.32794
944.72778,483.22489
946.40369,484.32794
948.07959,484.32794
949.7555,483.22489
951.4314,483.22489
953.10731,483.22489
954.78321,484.32794
956.45912,485.431
958.13502,486.53405
959.81093,486.53405
961.48683,486.53405
963.16274,485.431
964.83864,484.32794
966.51455,485.431
966.51455,484.32794
968.19045,489.84322
968.19045,485.431
968.19045,486.53405
968.19045,487.63711
968.19045,488.74016
969.86636,489.84322
971.54226,490.94627
973.21817,489.84322
974.89407,488.74016
976.56998,487.63711
978.24588,486.53405
979.92179,486.53405
981.59769,487.63711
983.2736,488.74016
984.9495,488.74016
986.62541,487.63711
986.62541,488.74016
988.30131,487.63711
989.97722,487.63711
991.65312,483.22489
991.65312,486.53405
991.65312,485.431
991.65312,484.32794
991.65312,482.12183
993.32903,482.12183
995.00493,482.12183
996.68084,483.22489
998.35674,484.32794
1000.03265,485.431
1001.70855,485.431
1003.38446,485.431
1005.06036,484.32794
1006.73627,483.22489
1008.41217,485.431
1008.41217,482.12183
1008.41217,483.22489
1008.41217,484.32794
1008.41217,486.53405
1010.08808,487.63711
1011.76398,486.53405
1013.43989,485.431
1015.11579,484.32794
1016.79169,483.22489
1018.4676,484.32794
1020.1435,485.431
1021.81941,486.53405
1023.49531,487.63711
1025.17122,488.74016
1026.84712,484.32794
1026.84712,488.74016
1026.84712,487.63711
1026.84712,486.53405
1026.84712,485.431
1026.84712,483.22489
1028.52303,482.12183
1030.19893,482.12183
1031.87484,482.12183
1033.55074,482.12183
1035.22665,482.12183
1036.90255,483.22489
1038.57846,484.32794
1040.25436,483.22489
1041.93027,482.12183
1043.60617,482.12183
1045.28208,482.12183
1046.95798,482.12183
1048.63389,481.01878
1050.30979,481.01878
1051.9857,481.01878
1053.6616,481.01878
1055.33751,481.01878
1057.01341,481.01878
1058.68932,481.01878
1060.36522,482.12183
1062.04113,483.22489
1063.71703,484.32794
1065.39294,484.32794
1065.39294,483.22489
1067.06884,483.22489
1068.74475,483.22489
1070.42065,479.91572
1070.42065,482.12183
1070.42065,481.01878
1070.42065,478.81267
1070.42065,477.70961
1070.42065,476.60656
1072.09656,476.60656
1073.77246,476.60656
1075.44837,476.60656
1077.12427,477.70961
1078.80018,478.81267
1080.47608,479.91572
1082.15199,481.01878
1083.82789,482.12183
1085.5038,482.12183
1087.1797,481.01878
1088.85561,479.91572
1090.53151,478.81267
1092.20742,478.81267
1093.88332,478.81267
1095.55923,478.81267
1097.23513,479.91572
1098.91104,481.01878
1100.58694,481.01878
1102.26284,482.12183
1103.93875,483.22489
1105.61465,482.12183
1107.29056,481.01878
1108.96646,479.91572
1110.64237,478.81267
1112.31827,478.81267
1113.99418,478.81267
1115.67008,478.81267
1117.34599,478.81267
1119.02189,478.81267
1120.6978,478.81267
1122.3737,478.81267
1124.04961,479.91572
1125.72551,481.01878
1127.40142,482.12183
1129.07732,483.22489
1130.75323,483.22489
1132.42913,483.22489
1134.10504,483.22489
1135.78094,483.22489
1137.45685,483.22489
1139.13275,484.32794
1140.80866,484.32794
1142.48456,484.32794
1144.16047,483.22489
1145.83637,484.32794
1147.51228,484.32794
1149.18818,485.431
1150.86409,485.431
1152.53999,485.431
1154.2159,484.32794
1155.8918,483.22489
1157.56771,482.12183
1159.24361,481.01878
1160.91952,481.01878
1162.59542,481.01878
1164.27133,481.01878
1165.94723,481.01878
1167.62314,481.01878
1169.29904,479.91572
1170.97495,479.91572
1172.65085,478.81267
1174.32676,478.81267
1176.00266,479.91572
1177.67857,481.01878
1179.35447,482.12183
1181.03038,483.22489
1182.70628,483.22489
1184.38218,483.22489
1186.05809,483.22489
1187.73399,482.12183
1189.4099,481.01878
1191.0858,481.01878
1191.0858,479.91572
1192.76171,481.01878
1194.43761,481.01878
1194.43761,482.12183
1196.11352,482.12183
1197.78942,482.12183
1199.46533,487.63711
1199.46533,483.22489
1199.46533,484.32794
1199.46533,485.431
1199.46533,486.53405
1201.14123,487.63711
1202.81714,488.74016
1204.49304,488.74016
1206.16895,487.63711
1207.84485,486.53405
1209.52076,485.431
1211.19666,485.431
1212.87257,485.431
1214.54847,486.53405
1216.22438,486.53405
1217.90028,485.431
1219.57619,484.32794
1221.25209,484.32794
1222.928,484.32794
1224.6039,484.32794
1226.27981,483.22489
1227.95571,483.22489
1229.63162,483.22489
1231.30752,483.22489
1232.98343,483.22489
1234.65933,483.22489
1236.33524,483.22489
1238.01114,483.22489
1239.68705,484.32794
1241.36295,485.431
1243.03886,486.53405
1244.71476,486.53405
1246.39067,486.53405
1246.39067,484.32794
1246.39067,485.431
1248.06657,481.01878
1248.06657,484.32794
1248.06657,483.22489
1248.06657,482.12183
1249.74248,479.91572
1251.41838,479.91572
1253.09429,481.01878
1254.77019,482.12183
1256.4461,483.22489
1258.122,484.32794
1259.79791,483.22489
1261.47381,484.32794
1263.14972,483.22489
1264.82562,482.12183
1266.50152,483.22489
1268.17743,483.22489
1269.85333,482.12183
1271.52924,481.01878
1273.20514,479.91572
1274.88105,479.91572
1276.55695,481.01878
1276.55695,479.91572
1276.55695,484.32794
1276.55695,482.12183
1276.55695,483.22489
1276.55695,485.431
1278.23286,486.53405
1279.90876,486.53405
1281.58467,486.53405
1283.26057,486.53405
1284.93648,486.53405
1286.61238,487.63711
1288.28829,486.53405
1289.96419,485.431
1291.6401,484.32794
1293.316,483.22489
1294.99191,483.22489
1296.66781,484.32794
1298.34372,485.431
1300.01962,486.53405
1301.69553,487.63711
1303.37143,486.53405
1305.04734,485.431
1306.72324,484.32794
1308.39915,484.32794
1310.07505,483.22489
1311.75096,483.22489
1313.42686,484.32794
1315.10277,485.431
1316.77867,486.53405
1318.45458,487.63711
1320.13048,487.63711
1321.80639,487.63711
1323.48229,487.63711
1325.1582,488.74016
1326.8341,488.74016
1328.51001,488.74016
1330.18591,488.74016
1331.86182,488.74016
1333.53772,488.74016
1335.21363,488.74016
1336.88953,488.74016
1338.56544,488.74016
1340.24134,488.74016
1341.91725,489.84322
1343.59315,488.74016
1345.26906,487.63711
1346.94496,488.74016
1348.62087,489.84322
1350.29677,490.94627
1351.97267,489.84322
1353.64858,488.74016
1355.32448,487.63711
1357.00039,486.53405
1358.67629,486.53405
1360.3522,487.63711
1362.0281,488.74016
1363.70401,489.84322
1365.37991,488.74016
1367.05582,489.84322
1368.73172,489.84322
1370.40763,488.74016
1372.08353,487.63711
1373.75944,486.53405
1375.43534,485.431
1377.11125,485.431
1378.78715,486.53405
1380.46306,486.53405
1382.13896,487.63711
1382.13896,490.94627
1382.13896,488.74016
1382.13896,489.84322
1382.13896,492.04933
1383.81487,493.15239
1385.49077,493.15239
1387.16668,493.15239
1388.84258,493.15239
1390.51849,493.15239
1392.19439,486.53405
1392.19439,492.04933
1392.19439,490.94627
1392.19439,489.84322
1392.19439,488.74016
1392.19439,487.63711
1393.8703,485.431
1395.5462,484.32794
1395.5462,485.431
1397.22211,483.22489
1398.89801,482.12183
1398.89801,483.22489
1400.57392,481.01878
1400.57392,482.12183
1402.24982,479.91572
1403.92573,479.91572
1405.60163,479.91572
1407.27754,478.81267
1408.95344,478.81267
1410.62935,479.91572
1412.30525,481.01878
1413.98116,482.12183
1415.65706,483.22489
1417.33297,484.32794
1419.00887,484.32794
1420.68478,483.22489
1422.36068,484.32794
1424.03659,484.32794
1425.71249,484.32794
1427.3884,485.431
1429.0643,484.32794
1430.74021,485.431
1432.41611,485.431
1434.09201,484.32794
1435.76792,484.32794
1437.44382,483.22489
1439.11973,484.32794
1440.79563,484.32794
1442.47154,484.32794
1444.14744,483.22489
1445.82335,483.22489
1447.49925,483.22489
1449.17516,483.22489
1450.85106,483.22489
1452.52697,483.22489
1454.20287,483.22489
1455.87878,483.22489
1457.55468,483.22489
1459.23059,482.12183
1460.90649,482.12183
1462.5824,481.01878
1464.2583,481.01878
1465.93421,481.01878
1467.61011,481.01878
1469.28602,481.01878
1470.96192,479.91572
1472.63783,478.81267
1474.31373,477.70961
1475.98964,476.60656
1477.66554,477.70961
1479.34145,481.01878
1479.34145,477.70961
1479.34145,478.81267
1479.34145,479.91572
1479.34145,482.12183
1481.01735,483.22489
1482.69326,484.32794
1484.36916,484.32794
1486.04507,484.32794
1487.72097,485.431
1489.39688,485.431
1491.07278,485.431
1492.74869,485.431
1494.42459,484.32794
1496.1005,484.32794
1497.7764,484.32794
1499.45231,483.22489
1501.12821,484.32794
1502.80412,484.32794
1504.48002,483.22489
1506.15593,483.22489
1507.83183,477.70961
1507.83183,482.12183
1507.83183,481.01878
1507.83183,479.91572
1507.83183,478.81267
1509.50774,481.01878
1509.50774,476.60656
1511.18364,476.60656
1511.18364,479.91572
1512.85955,476.60656
1512.85955,478.81267
1514.53545,476.60656
1514.53545,477.70961
1516.21135,475.5035
1516.21135,474.40045
1516.21135,477.70961
1517.88726,477.70961
1519.56316,478.81267
1519.56316,479.91572
1519.56316,481.01878
1519.56316,482.12183
1519.56316,483.22489
1519.56316,484.32794
1519.56316,485.431
1519.56316,486.53405
1521.23907,486.53405
1522.91497,486.53405
1524.59088,486.53405
1526.26678,486.53405
1527.94269,486.53405
1527.94269,487.63711
1529.61859,487.63711
1529.61859,488.74016
1531.2945,488.74016
1531.2945,489.84322
1532.9704,489.84322
1534.64631,490.94627
1534.64631,489.84322
1536.32221,492.04933
1536.32221,490.94627
1537.99812,493.15239
1537.99812,492.04933
1539.67402,493.15239
1541.34993,495.3585
1541.34993,493.15239
1541.34993,494.25544
1541.34993,497.56461
1541.34993,496.46155
1541.34993,498.66766
1543.02583,498.66766
1544.70174,499.77072
1546.37764,499.77072
1548.05355,499.77072
1549.72945,498.66766
1551.40536,497.56461
1553.08126,496.46155
1553.08126,497.56461
1554.75717,497.56461
1556.43307,498.66766
1556.43307,497.56461
1558.10898,499.77072
1558.10898,498.66766
1559.78488,499.77072
1561.46079,500.87377
1561.46079,499.77072
1563.13669,501.97683
1563.13669,500.87377
1564.8126,501.97683
1564.8126,503.07988
1566.4885,504.18294
1566.4885,503.07988
1568.16441,504.18294
1568.16441,505.28599
1569.84031,505.28599
1569.84031,506.38905
1571.51622,508.59516
1571.51622,506.38905
1571.51622,507.4921
1573.19212,508.59516
1574.86803,513.00738
1574.86803,508.59516
1574.86803,509.69821
1574.86803,510.80127
1574.86803,511.90432
1576.54393,514.11043
1576.54393,513.00738
1578.21984,515.21349
1578.21984,514.11043
1579.89574,515.21349
1581.57165,515.21349
1583.24755,515.21349
1584.92346,515.21349
1586.59936,515.21349
1586.59936,517.4196
1586.59936,516.31654
1588.27527,519.62571
1588.27527,517.4196
1588.27527,518.52265
1589.95117,520.72876
1589.95117,519.62571
1591.62708,522.93487
1591.62708,520.72876
1591.62708,521.83182
1593.30298,524.03793
1593.30298,522.93487
1594.97889,525.14098
1594.97889,524.03793
1596.65479,530.65626
1596.65479,525.14098
1596.65479,526.24404
1596.65479,527.3471
1596.65479,528.45015
1596.65479,529.55321
1596.65479,531.75932
1598.3307,532.86237
1600.0066,532.86237
1601.6825,531.75932
1603.35841,530.65626
1605.03431,529.55321
1606.71022,529.55321
1608.38612,530.65626
1610.06203,531.75932
1611.73793,532.86237
1613.41384,527.3471
1613.41384,532.86237
1613.41384,531.75932
1613.41384,530.65626
1613.41384,529.55321
1613.41384,528.45015
1615.08974,527.3471
1616.76565,527.3471
1616.76565,526.24404
1618.44155,526.24404
1620.11746,525.14098
1620.11746,526.24404
1621.79336,526.24404
1623.46927,525.14098
1625.14517,526.24404
1626.82108,527.3471
1628.49698,528.45015
1630.17289,526.24404
1630.17289,527.3471
1630.17289,524.03793
1630.17289,525.14098
1630.17289,522.93487
1630.17289,521.83182
1631.84879,521.83182
1631.84879,520.72876
1633.5247,520.72876
1635.2006,520.72876
1636.87651,520.72876
1638.55241,520.72876
1640.22832,520.72876
1641.90422,520.72876
1641.90422,516.31654
1641.90422,519.62571
1641.90422,518.52265
1641.90422,517.4196
1641.90422,515.21349
1643.58013,515.21349
1645.25603,513.00738
1645.25603,515.21349
1645.25603,514.11043
1646.93194,511.90432
1646.93194,513.00738
1648.60784,509.69821
1648.60784,510.80127
1650.28375,508.59516
1650.28375,509.69821
1651.95965,508.59516
1651.95965,506.38905
1651.95965,507.4921
1653.63556,506.38905
1655.31146,503.07988
1655.31146,505.28599
1655.31146,504.18294
1656.98737,503.07988
1656.98737,497.56461
1656.98737,501.97683
1656.98737,500.87377
1656.98737,499.77072
1656.98737,498.66766
1656.98737,496.46155
1658.66327,496.46155
1658.66327,495.3585
1660.33918,495.3585
1662.01508,495.3585
1663.69099,495.3585
1665.36689,493.15239
1665.36689,495.3585
1665.36689,494.25544
1667.0428,493.15239
1668.7187,492.04933
1670.39461,492.04933
1672.07051,492.04933
1673.74642,490.94627
1675.42232,489.84322
1677.09823,489.84322
1678.77413,488.74016
1678.77413,489.84322
1680.45004,488.74016
1682.12594,487.63711
1683.80184,486.53405
1683.80184,487.63711
1685.47775,486.53405
1687.15365,486.53405
1688.82956,487.63711
1690.50546,488.74016
1692.18137,489.84322
1693.85727,488.74016
1695.53318,487.63711
1697.20908,486.53405
1698.88499,486.53405
1700.56089,490.94627
1700.56089,485.431
1700.56089,486.53405
1700.56089,487.63711
1700.56089,488.74016
1700.56089,489.84322
1702.2368,492.04933
1702.2368,490.94627
1703.9127,492.04933
1705.58861,492.04933
1707.26451,490.94627
1708.94042,489.84322
1710.61632,488.74016
1712.29223,489.84322
1713.96813,490.94627
1715.64404,485.431
1715.64404,490.94627
1715.64404,489.84322
1715.64404,488.74016
1715.64404,487.63711
1715.64404,486.53405
1717.31994,485.431
1717.31994,484.32794
1718.99585,483.22489
1720.67175,483.22489
1722.34766,482.12183
1722.34766,483.22489
1724.02356,481.01878
1725.69947,481.01878
1727.37537,481.01878
1729.05128,482.12183
1730.72718,483.22489
1732.40309,484.32794
1734.07899,484.32794
1735.7549,484.32794
1737.4308,484.32794
1739.10671,484.32794
1740.78261,483.22489
1742.45852,483.22489
1744.13442,484.32794
1745.81033,484.32794
1747.48623,484.32794
1749.16214,483.22489
1750.83804,483.22489
1752.51395,483.22489
1754.18985,482.12183
1755.86576,482.12183
1757.54166,482.12183
1759.21757,483.22489
1760.89347,484.32794
1762.56938,483.22489
1764.24528,482.12183
1765.92118,481.01878
1767.59709,479.91572
1769.27299,481.01878
1770.9489,482.12183
1772.6248,483.22489
1774.30071,484.32794
1775.97661,484.32794
1777.65252,483.22489
1779.32842,483.22489
1779.32842,482.12183
1779.32842,481.01878
1779.32842,479.91572
1779.32842,478.81267
1781.00433,477.70961
1782.68023,476.60656
1784.35614,476.60656
1786.03204,476.60656
1787.70795,475.5035
1789.38385,475.5035
1791.05976,475.5035
1792.73566,476.60656
1794.41157,477.70961
1796.08747,478.81267
1797.76338,479.91572
1799.43928,478.81267
1801.11519,477.70961
1802.79109,476.60656
1804.467,477.70961
1806.1429,477.70961
1807.81881,477.70961
1809.49471,477.70961
1811.17062,477.70961
1812.84652,477.70961
1814.52243,477.70961
1816.19833,478.81267
1817.87424,478.81267
1819.55014,478.81267
1821.22605,478.81267
1822.90195,478.81267
1824.57786,479.91572
1826.25376,481.01878
1827.92967,482.12183
1829.60557,483.22489
1831.28148,483.22489
1832.95738,483.22489
1834.63329,483.22489
1836.30919,482.12183
1836.30919,481.01878
1837.9851,482.12183
1839.661,481.01878
1841.33691,481.01878
1843.01281,481.01878
1844.68872,481.01878
1846.36462,479.91572
1848.04052,481.01878
1849.71643,481.01878
1851.39233,481.01878
1853.06824,481.01878
1854.74414,479.91572
1856.42005,478.81267
1858.09595,477.70961
1859.77186,478.81267
1861.44776,479.91572
1863.12367,481.01878
1864.79957,481.01878
1866.47548,479.91572
1868.15138,478.81267
1869.82729,477.70961
1871.50319,477.70961
1873.1791,478.81267
1874.855,477.70961
1876.53091,477.70961
1878.20681,478.81267
1879.88272,479.91572
1881.55862,481.01878
1883.23453,482.12183
1884.91043,483.22489
1886.58634,483.22489
1888.26224,482.12183
1888.26224,481.01878
1888.26224,479.91572
1888.26224,478.81267
1889.93815,477.70961
1891.61405,477.70961
1893.28996,477.70961
1894.96586,477.70961
1896.64177,478.81267
1898.31767,479.91572
1899.99358,479.91572
1901.66948,478.81267
1903.34539,477.70961
1905.02129,477.70961
1906.6972,477.70961
1906.6972,478.81267
1906.6972,479.91572
1906.6972,481.01878
1906.6972,482.12183
1906.6972,483.22489
1908.3731,484.32794
1910.04901,484.32794
1911.72491,484.32794
1911.72491,485.431
1913.40082,485.431
1913.40082,486.53405
1915.07672,486.53405
1916.75263,486.53405
1918.42853,485.431
1920.10444,486.53405
1921.78034,486.53405
1923.45625,486.53405
1925.13215,485.431
1926.80806,484.32794
1928.48396,483.22489
1930.15987,484.32794
1931.83577,484.32794
1933.51167,484.32794
1935.18758,485.431
1936.86348,486.53405
1938.53939,487.63711
1940.21529,486.53405
1941.8912,486.53405
1943.5671,486.53405
1945.24301,485.431
1946.91891,485.431
1946.91891,484.32794
1948.59482,484.32794
1948.59482,483.22489
1948.59482,482.12183
1948.59482,481.01878
1948.59482,479.91572
1950.27072,479.91572
1951.94663,481.01878
1953.62253,482.12183
1955.29844,483.22489
1956.97434,483.22489
1958.65025,483.22489
1960.32615,482.12183
1962.00206,481.01878
1963.67796,482.12183
1965.35387,481.01878
1967.02977,482.12183
1968.70568,481.01878
1970.38158,479.91572
1972.05749,481.01878
1973.73339,481.01878
1975.4093,482.12183
1977.0852,483.22489
1978.76111,482.12183
1980.43701,482.12183
1982.11292,482.12183
1983.78882,482.12183
1985.46473,482.12183
1987.14063,481.01878
1988.81654,481.01878
1990.49244,481.01878
1992.16835,481.01878
1993.84425,482.12183
1995.52016,483.22489
1997.19606,483.22489
1998.87197,483.22489
2000.54787,483.22489
2002.22378,483.22489
2003.89968,483.22489
2005.57559,483.22489
2007.25149,483.22489
2008.9274,484.32794
2010.6033,484.32794
2010.6033,485.431
2010.6033,486.53405
2012.27921,487.63711
2012.27921,488.74016
2012.27921,489.84322
2013.95511,489.84322
2015.63101,488.74016
2017.30692,487.63711
2018.98282,486.53405
2020.65873,486.53405
2022.33463,485.431
2024.01054,485.431
2025.68644,485.431
2027.36235,486.53405
2029.03825,485.431
2030.71416,486.53405
2032.39006,487.63711
2034.06597,488.74016
2035.74187,489.84322
2037.41778,488.74016
2039.09368,488.74016
2040.76959,487.63711
2042.44549,486.53405
2044.1214,485.431
2045.7973,486.53405
2047.47321,487.63711
2049.14911,488.74016
2050.82502,488.74016
2052.50092,487.63711
2054.17683,487.63711
2055.85273,487.63711
2057.52864,487.63711
2059.20454,487.63711
2060.88045,486.53405
2062.55635,485.431
2064.23226,485.431
2065.90816,485.431
2067.58407,486.53405
2069.25997,487.63711
2070.93588,488.74016
2072.61178,489.84322
2074.28769,489.84322
2075.96359,489.84322
2077.6395,488.74016
2079.3154,487.63711
2080.99131,486.53405
2082.66721,485.431
2084.34312,486.53405
2086.01902,487.63711
2087.69493,488.74016
2089.37083,489.84322
2091.04674,490.94627
2092.72264,489.84322
2094.39855,488.74016
2096.07445,487.63711
2097.75035,488.74016
2099.42626,489.84322
2101.10216,489.84322
2102.77807,490.94627
2104.45397,490.94627
2106.12988,489.84322
2107.80578,488.74016
2109.48169,490.94627
2109.48169,487.63711
2109.48169,488.74016
2109.48169,489.84322
2109.48169,492.04933
2111.15759,493.15239
2112.8335,493.15239
2114.5094,493.15239
2116.18531,493.15239
2117.86121,494.25544
2119.53712,493.15239
2121.21302,492.04933
2122.88893,493.15239
2124.56483,487.63711
2124.56483,493.15239
2124.56483,492.04933
2124.56483,490.94627
2124.56483,489.84322
2124.56483,488.74016
2126.24074,486.53405
2126.24074,487.63711
2127.91664,486.53405
2127.91664,485.431
2129.59255,484.32794
2131.26845,483.22489
2132.94436,483.22489
2134.62026,482.12183
2136.29617,482.12183
2137.97207,482.12183
2139.64798,483.22489
2141.32388,484.32794
2142.99979,485.431
2144.67569,487.63711
2144.67569,484.32794
2144.67569,485.431
2144.67569,486.53405
2146.3516,488.74016
2148.0275,488.74016
2149.70341,489.84322
2151.37931,489.84322
2153.05522,489.84322
2153.05522,490.94627
2154.73112,490.94627
2156.40703,489.84322
2158.08293,488.74016
2159.75884,487.63711
2161.43474,487.63711
2163.11065,488.74016
2164.78655,489.84322
2166.46246,490.94627
2168.13836,490.94627
2169.81427,489.84322
2171.49017,488.74016
2173.16608,487.63711
2174.84198,486.53405
2176.51789,486.53405
2178.19379,486.53405
2179.8697,492.04933
2179.8697,486.53405
2179.8697,487.63711
2179.8697,488.74016
2179.8697,489.84322
2179.8697,490.94627
2181.5456,493.15239
2181.5456,492.04933
2183.2215,494.25544
2183.2215,493.15239
2184.89741,495.3585
2186.57331,496.46155
2186.57331,495.3585
2188.24922,496.46155
2189.92512,497.56461
2189.92512,496.46155
2191.60103,497.56461
2193.27693,496.46155
2194.95284,495.3585
2196.62874,494.25544
2198.30465,495.3585
2199.98055,496.46155
2201.65646,497.56461
2203.33236,495.3585
2203.33236,497.56461
2203.33236,496.46155
2203.33236,494.25544
2203.33236,492.04933
2203.33236,493.15239
2205.00827,490.94627
2206.68417,490.94627
2208.36008,489.84322
2208.36008,490.94627
2210.03598,489.84322
2211.71189,488.74016
2211.71189,489.84322
2213.38779,488.74016
2215.0637,487.63711
2215.0637,488.74016
2216.7396,487.63711
2218.41551,488.74016
2220.09141,487.63711
2221.76732,487.63711
2223.44322,492.04933
2223.44322,488.74016
2223.44322,489.84322
2223.44322,490.94627
2225.11913,493.15239
2226.79503,493.15239
2228.47094,494.25544
2228.47094,493.15239
2230.14684,493.15239
2231.82275,492.04933
2233.49865,490.94627
2235.17456,490.94627
2236.85046,492.04933
2238.52637,493.15239
2240.20227,494.25544
2241.87818,495.3585
2243.55408,496.46155
2245.22999,496.46155
2246.90589,496.46155
2248.5818,492.04933
2248.5818,495.3585
2248.5818,494.25544
2248.5818,493.15239
2248.5818,490.94627
2250.2577,489.84322
2250.2577,490.94627
2251.93361,488.74016
2253.60951,488.74016
2253.60951,487.63711
2255.28542,487.63711
2256.96132,487.63711
2258.63723,488.74016
2260.31313,489.84322
2261.98904,490.94627
2263.66494,489.84322
2265.34084,489.84322
2267.01675,489.84322
2268.69265,489.84322
2270.36856,489.84322
2272.04446,489.84322
2273.72037,489.84322
2275.39627,488.74016
2277.07218,487.63711
2278.74808,486.53405
2280.42399,485.431
2282.09989,485.431
2283.7758,485.431
2285.4517,485.431
2287.12761,486.53405
2288.80351,486.53405
2290.47942,486.53405
2292.15532,490.94627
2292.15532,487.63711
2292.15532,488.74016
2292.15532,489.84322
2292.15532,493.15239
2292.15532,492.04933
2293.83123,493.15239
2293.83123,494.25544
2295.50713,494.25544
2297.18304,495.3585
2297.18304,494.25544
2298.85894,495.3585
2298.85894,496.46155
2300.53485,496.46155
2302.21075,496.46155
2303.88666,496.46155
2305.56256,497.56461
2305.56256,496.46155
2307.23847,498.66766
2307.23847,497.56461
2308.91437,499.77072
2310.59028,500.87377
2310.59028,499.77072
2312.26618,501.97683
2312.26618,500.87377
2312.26618,503.07988
2312.26618,504.18294
2312.26618,505.28599
2312.26618,506.38905
2312.26618,507.4921
2313.94209,507.4921
2313.94209,508.59516
2313.94209,503.07988
2313.94209,504.18294
2315.61799,504.18294
2315.61799,508.59516
2315.61799,505.28599
2315.61799,509.69821
2317.2939,510.80127
2317.2939,505.28599
2317.2939,506.38905
2318.9698,507.4921
2318.9698,510.80127
2318.9698,506.38905
2320.64571,510.80127
2320.64571,507.4921
2322.32161,515.21349
2322.32161,514.11043
2322.32161,510.80127
2322.32161,507.4921
2322.32161,516.31654
2322.32161,513.00738
2323.99752,511.90432
2323.99752,508.59516
2323.99752,510.80127
2323.99752,517.4196
2325.67342,518.52265
2325.67342,519.62571
2325.67342,520.72876
2325.67342,521.83182
2325.67342,509.69821
2327.34933,509.69821
2329.02523,509.69821
2330.70114,509.69821
2332.37704,509.69821
2334.05295,509.69821
2335.72885,508.59516
2337.40476,508.59516
2337.40476,507.4921
2339.08066,507.4921
2340.75657,507.4921
2340.75657,506.38905
2342.43247,506.38905
2342.43247,505.28599
2342.43247,504.18294
2342.43247,503.07988
2342.43247,501.97683
2342.43247,500.87377
2344.10838,500.87377
2345.78428,499.77072
2347.46018,499.77072
2349.13609,500.87377
2350.81199,500.87377
2352.4879,501.97683
2354.1638,503.07988
2354.1638,501.97683
2355.83971,501.97683
2357.51561,501.97683
2357.51561,500.87377
2359.19152,500.87377
2360.86742,500.87377
2360.86742,499.77072
2362.54333,499.77072
2362.54333,498.66766
2364.21923,497.56461
2365.89514,497.56461
2365.89514,496.46155
2365.89514,495.3585
2365.89514,494.25544
2367.57104,493.15239
2369.24695,493.15239
2370.92285,493.15239
2372.59876,493.15239
2374.27466,493.15239
2374.27466,492.04933
2375.95057,492.04933
2377.62647,490.94627
2379.30238,489.84322
2379.30238,488.74016
2379.30238,487.63711
2379.30238,486.53405
2380.97828,485.431
2382.65419,484.32794
2384.33009,484.32794
2386.006,484.32794
2387.6819,485.431
2389.35781,485.431
2389.35781,486.53405
2391.03371,486.53405
2391.03371,487.63711
2392.70962,487.63711
2392.70962,488.74016
2392.70962,489.84322
2394.38552,489.84322
2396.06143,489.84322
2396.06143,490.94627
2397.73733,490.94627
2397.73733,492.04933
2399.41324,492.04933
2399.41324,493.15239
2399.41324,494.25544
2399.41324,495.3585
2399.41324,496.46155
2399.41324,497.56461
2401.08914,497.56461
2402.76505,496.46155
2404.44095,495.3585
2406.11686,494.25544
2407.79276,495.3585
2409.46867,496.46155
2411.14457,497.56461
2412.82048,497.56461
2412.82048,496.46155
2414.49638,496.46155
2416.17229,496.46155
2417.84819,495.3585
2417.84819,494.25544
2417.84819,493.15239
2417.84819,492.04933
2417.84819,490.94627
2417.84819,489.84322
2419.5241,489.84322
2421.2,488.74016
2422.87591,488.74016
2424.55181,489.84322
2426.22772,490.94627
2427.90362,492.04933
2429.57953,490.94627
2431.25543,489.84322
2432.93133,488.74016
2434.60724,488.74016
2436.28314,489.84322
2437.95905,490.94627
2439.63495,492.04933
2441.31086,492.04933
2442.98676,492.04933
2444.66267,492.04933
2446.33857,492.04933
2448.01448,492.04933
2449.69038,492.04933
2451.36629,493.15239
2453.04219,492.04933
2454.7181,493.15239
2456.394,493.15239
2458.06991,493.15239
2459.74581,492.04933
2461.42172,492.04933
2463.09762,493.15239
2464.77353,493.15239
2466.44943,493.15239
2468.12534,493.15239
2469.80124,494.25544
2471.47715,493.15239
2473.15305,492.04933
2474.82896,490.94627
2476.50486,490.94627
2478.18077,492.04933
2479.85667,493.15239
2481.53258,494.25544
2483.20848,495.3585
2484.88439,495.3585
2486.56029,495.3585
2488.2362,495.3585
2488.2362,494.25544
2489.9121,494.25544
2489.9121,493.15239
2489.9121,492.04933
2489.9121,490.94627
2489.9121,489.84322
2489.9121,488.74016
2489.9121,487.63711
2491.58801,487.63711
2493.26391,487.63711
2494.93982,487.63711
2496.61572,487.63711
2498.29163,487.63711
2498.29163,486.53405
2499.96753,486.53405
2499.96753,485.431
2501.64344,485.431
2501.64344,484.32794
2503.31934,484.32794
2503.31934,483.22489
2503.31934,482.12183
2503.31934,481.01878
2504.99525,481.01878
2506.67115,479.91572
2508.34706,478.81267
2510.02296,478.81267
2511.69887,478.81267
2513.37477,478.81267
2515.05067,479.91572
2515.05067,481.01878
2515.05067,482.12183
2515.05067,483.22489
2516.72658,483.22489
2518.40248,483.22489
2520.07839,483.22489
2520.07839,484.32794
2521.75429,484.32794
2521.75429,485.431
2523.4302,485.431
2525.1061,485.431
2525.1061,486.53405
2526.78201,486.53405
2528.45791,486.53405
2530.13382,489.84322
2530.13382,487.63711
2530.13382,488.74016
2531.80972,489.84322
2533.48563,490.94627
2535.16153,492.04933
2536.83744,493.15239
2538.51334,493.15239
2540.18925,493.15239
2541.86515,492.04933
2543.54106,490.94627
2543.54106,492.04933
2545.21696,490.94627
2546.89287,490.94627
2546.89287,489.84322
2548.56877,488.74016
2548.56877,489.84322
2550.24468,488.74016
2551.92058,487.63711
2551.92058,488.74016
2553.59649,487.63711
2555.27239,487.63711
2555.27239,486.53405
2556.9483,486.53405
2558.6242,486.53405
2558.6242,485.431
2560.30011,485.431
2561.97601,485.431
2563.65192,483.22489
2563.65192,484.32794
2565.32782,483.22489
2567.00373,483.22489
2567.00373,482.12183
2568.67963,482.12183
2568.67963,477.70961
2568.67963,481.01878
2568.67963,479.91572
2568.67963,478.81267
2568.67963,476.60656
2570.35554,476.60656
2572.03144,476.60656
2573.70735,476.60656
2575.38325,477.70961
2577.05916,478.81267
2578.73506,477.70961
2580.41097,476.60656
2582.08687,475.5035
2583.76278,475.5035
2585.43868,476.60656
2587.11459,476.60656
2588.79049,476.60656
2590.4664,477.70961
2592.1423,478.81267
2592.1423,477.70961
2593.81821,478.81267
2595.49411,479.91572
2595.49411,478.81267
2597.17001,479.91572
2598.84592,481.01878
2598.84592,479.91572
2600.52182,481.01878
2602.19773,481.01878
2602.19773,482.12183
2603.87363,482.12183
2605.54954,482.12183
2605.54954,483.22489
2607.22544,483.22489
2608.90135,483.22489
2610.57725,484.32794
2612.25316,485.431
2613.92906,492.04933
2613.92906,486.53405
2613.92906,487.63711
2613.92906,488.74016
2613.92906,489.84322
2613.92906,490.94627
2615.60497,493.15239
2617.28087,492.04933
2618.95678,490.94627
2620.63268,489.84322
2622.30859,490.94627
2623.98449,492.04933
2625.6604,493.15239
2627.3363,493.15239
2627.3363,492.04933
2629.01221,492.04933
2630.68811,492.04933
2632.36402,489.84322
2632.36402,490.94627
2634.03992,488.74016
2634.03992,489.84322
2635.71583,488.74016
2637.39173,486.53405
2637.39173,487.63711
2639.06764,485.431
2639.06764,486.53405
2640.74354,484.32794
2640.74354,485.431
2642.41945,483.22489
2642.41945,484.32794
2642.41945,481.01878
2642.41945,479.91572
2642.41945,478.81267
2642.41945,482.12183
2644.09535,478.81267
2645.77126,479.91572
2647.44716,481.01878
2649.12307,482.12183
2650.79897,482.12183
2652.47488,481.01878
2654.15078,482.12183
2655.82669,483.22489
2657.50259,483.22489
2659.1785,483.22489
2660.8544,484.32794
2662.53031,483.22489
2664.20621,482.12183
2665.88212,481.01878
2667.55802,481.01878
2669.23393,482.12183
2670.90983,483.22489
2672.58574,483.22489
2674.26164,483.22489
2675.93755,482.12183
2677.61345,482.12183
2679.28936,482.12183
2680.96526,482.12183
2682.64116,481.01878
2684.31707,479.91572
2685.99297,478.81267
2687.66888,478.81267
2689.34478,479.91572
2689.34478,478.81267
2691.02069,479.91572
2692.69659,482.12183
2692.69659,481.01878
2692.69659,484.32794
2692.69659,485.431
2692.69659,483.22489
2694.3725,486.53405
2696.0484,486.53405
2697.72431,485.431
2699.40021,484.32794
2701.07612,483.22489
2702.75202,482.12183
2704.42793,481.01878
2706.10383,482.12183
2707.77974,483.22489
2709.45564,484.32794
2711.13155,485.431
2712.80745,485.431
2714.48336,485.431
2716.15926,485.431
2717.83517,486.53405
2719.51107,486.53405
2721.18698,486.53405
2722.86288,485.431
2724.53879,484.32794
2726.21469,483.22489
2727.8906,483.22489
2729.5665,482.12183
2731.24241,482.12183
2732.91831,481.01878
2734.59422,481.01878
2736.27012,482.12183
2737.94603,483.22489
2739.62193,484.32794
2741.29784,484.32794
2742.97374,483.22489
2742.97374,484.32794
2744.64965,482.12183
2744.64965,483.22489
2744.64965,479.91572
2744.64965,478.81267
2744.64965,481.01878
2746.32555,477.70961
2748.00146,477.70961
2749.67736,477.70961
2751.35327,478.81267
2753.02917,479.91572
2754.70508,481.01878
2756.38098,481.01878
2758.05689,482.12183
2759.73279,481.01878
2761.4087,479.91572
2763.0846,479.91572
2764.7605,481.01878
2766.43641,482.12183
2768.11231,482.12183
2769.78822,482.12183
2771.46412,482.12183
2773.14003,483.22489
2774.81593,483.22489
2776.49184,483.22489
2778.16774,483.22489
2779.84365,483.22489
2781.51955,482.12183
2783.19546,481.01878
2784.87136,479.91572
2786.54727,478.81267
2788.22317,478.81267
2789.89908,478.81267
2791.57498,479.91572
2793.25089,481.01878
2794.92679,482.12183
2796.6027,483.22489
2798.2786,483.22489
2799.95451,483.22489
2801.63041,481.01878
2801.63041,482.12183
2803.30632,479.91572
2803.30632,481.01878
2804.98222,479.91572
2806.65813,479.91572
2808.33403,477.70961
2808.33403,476.60656
2808.33403,475.5035
2808.33403,474.40045
2808.33403,473.29739
2808.33403,478.81267
2810.00994,473.29739
2811.68584,473.29739
2813.36175,474.40045
2815.03765,473.29739
2816.71356,472.19434
2818.38946,472.19434
2820.06537,473.29739
2821.74127,473.29739
2823.41718,474.40045
2825.09308,475.5035
2825.09308,474.40045
2826.76899,476.60656
2826.76899,477.70961
2826.76899,478.81267
2826.76899,479.91572
2826.76899,481.01878
2826.76899,475.5035
2828.44489,482.12183
2830.1208,482.12183
2831.7967,482.12183
2833.47261,483.22489
2835.14851,483.22489
2836.82442,482.12183
2838.50032,483.22489
2840.17623,484.32794
2841.85213,485.431
2843.52804,485.431
2845.20394,485.431
2846.87984,484.32794
2848.55575,485.431
2850.23165,485.431
2851.90756,484.32794
2853.58346,483.22489
2855.25937,484.32794
2856.93527,485.431
2858.61118,485.431
2860.28708,485.431
2861.96299,485.431
2863.63889,485.431
2865.3148,485.431
2866.9907,484.32794
2868.66661,483.22489
2870.34251,482.12183
2872.01842,481.01878
2873.69432,481.01878
2875.37023,483.22489
2875.37023,484.32794
2875.37023,485.431
2875.37023,482.12183
2877.04613,486.53405
2877.04613,487.63711
2877.04613,485.431
2878.72204,487.63711
2880.39794,487.63711
2882.07385,488.74016
2883.74975,487.63711
2885.42566,486.53405
2887.10156,485.431
2888.77747,485.431
2890.45337,485.431
2892.12928,484.32794
2893.80518,485.431
2895.48109,486.53405
2897.15699,486.53405
2898.8329,485.431
2900.5088,484.32794
2902.18471,483.22489
2903.86061,482.12183
2905.53652,481.01878
2907.21242,482.12183
2908.88833,482.12183
2910.56423,482.12183
2912.24014,484.32794
2912.24014,483.22489
2913.91604,485.431
2913.91604,484.32794
2915.59195,486.53405
2915.59195,487.63711
2915.59195,488.74016
2915.59195,489.84322
2915.59195,490.94627
2915.59195,485.431
2917.26785,492.04933
2918.94376,490.94627
2920.61966,489.84322
2922.29557,490.94627
2923.97147,492.04933
2925.64738,492.04933
2927.32328,492.04933
2928.99919,490.94627
2930.67509,489.84322
2932.35099,490.94627
2932.35099,489.84322
2934.0269,489.84322
2935.7028,488.74016
2935.7028,489.84322
2937.37871,488.74016
2939.05461,488.74016
2940.73052,486.53405
2940.73052,487.63711
2942.40642,486.53405
2942.40642,484.32794
2942.40642,485.431
2944.08233,484.32794
2945.75823,484.32794
2947.43414,484.32794
2949.11004,483.22489
2949.11004,482.12183
2949.11004,481.01878
2949.11004,479.91572
2949.11004,478.81267
2949.11004,484.32794
2950.78595,477.70961
2952.46185,478.81267
2954.13776,479.91572
2955.81366,481.01878
2957.48957,479.91572
2959.16547,478.81267
2960.84138,477.70961
2962.51728,477.70961
2964.19319,478.81267
2964.19319,477.70961
2965.86909,479.91572
2965.86909,478.81267
2967.545,479.91572
2969.2209,479.91572
2970.89681,482.12183
2970.89681,481.01878
2972.57271,483.22489
2972.57271,484.32794
2972.57271,485.431
2972.57271,486.53405
2972.57271,487.63711
2972.57271,482.12183
2974.24862,488.74016
2975.92452,488.74016
2977.60043,488.74016
2979.27633,488.74016
2980.95224,487.63711
2982.62814,486.53405
2984.30405,487.63711
2985.97995,488.74016
2987.65586,488.74016
2989.33176,488.74016
2991.00767,488.74016
2992.68357,489.84322
2994.35948,489.84322
2996.03538,489.84322
2997.71129,489.84322
2999.38719,488.74016
3001.0631,487.63711
3002.739,486.53405
3004.41491,486.53405
3006.09081,487.63711
3007.76672,488.74016
3009.44262,489.84322
3011.11853,489.84322
3012.79443,488.74016
3014.47033,489.84322
3016.14624,489.84322
3017.82214,488.74016
3019.49805,488.74016
3021.17395,487.63711
3022.84986,487.63711
3024.52576,488.74016
3026.20167,488.74016
3027.87757,488.74016
3029.55348,489.84322
3031.22938,490.94627
3032.90529,490.94627
3034.58119,490.94627
3036.2571,492.04933
3037.933,493.15239
3039.60891,493.15239
3041.28481,493.15239
3042.96072,494.25544
3044.63662,493.15239
3046.31253,494.25544
3047.98843,494.25544
3049.66434,493.15239
3051.34024,492.04933
3053.01615,490.94627
3054.69205,492.04933
3054.69205,490.94627
3056.36796,493.15239
3058.04386,494.25544
3059.71977,495.3585
3061.39567,496.46155
3063.07158,497.56461
3064.74748,497.56461
3066.42339,496.46155
3068.09929,495.3585
3068.09929,496.46155
3069.7752,495.3585
3071.4511,494.25544
3071.4511,495.3585
3073.12701,494.25544
3074.80291,492.04933
3074.80291,490.94627
3074.80291,489.84322
3074.80291,488.74016
3074.80291,487.63711
3074.80291,493.15239
3076.47882,486.53405
3078.15472,486.53405
3079.83063,485.431
3081.50653,486.53405
3083.18244,487.63711
3084.85834,486.53405
3086.53425,486.53405
3088.21015,487.63711
3088.21015,486.53405
3089.88606,488.74016
3089.88606,487.63711
3091.56196,488.74016
3093.23787,488.74016
3094.91377,489.84322
3096.58967,489.84322
3098.26558,492.04933
3098.26558,493.15239
3098.26558,494.25544
3098.26558,495.3585
3098.26558,496.46155
3098.26558,490.94627
3099.94148,496.46155
3101.61739,496.46155
3103.29329,496.46155
3104.9692,496.46155
3106.6451,496.46155
3108.32101,495.3585
3109.99691,494.25544
3111.67282,493.15239
3113.34872,492.04933
3115.02463,493.15239
3116.70053,493.15239
3118.37644,493.15239
3120.05234,494.25544
3120.05234,495.3585
3120.05234,497.56461
3120.05234,498.66766
3120.05234,499.77072
3120.05234,496.46155
3121.72825,499.77072
3123.40415,499.77072
3125.08006,500.87377
3126.75596,500.87377
3128.43187,499.77072
3130.10777,498.66766
3131.78368,497.56461
3133.45958,497.56461
3135.13549,498.66766
3136.81139,499.77072
3138.4873,499.77072
3140.1632,499.77072
3141.83911,499.77072
3143.51501,499.77072
3145.19092,498.66766
3146.86682,499.77072
3148.54273,498.66766
3150.21863,497.56461
3151.89454,496.46155
3153.57044,496.46155
3155.24635,496.46155
3156.92225,496.46155
3158.59816,498.66766
3158.59816,499.77072
3158.59816,500.87377
3158.59816,497.56461
3158.59816,501.97683
3160.27406,503.07988
3161.94997,503.07988
3163.62587,503.07988
3165.30178,503.07988
3166.97768,503.07988
3168.65359,503.07988
3170.32949,503.07988
3172.0054,503.07988
3173.6813,503.07988
3175.35721,501.97683
3177.03311,501.97683
3178.70902,500.87377
3180.38492,499.77072
3182.06082,498.66766
3183.73673,498.66766
3185.41263,498.66766
3187.08854,500.87377
3187.08854,499.77072
3188.76444,500.87377
3190.44035,500.87377
3192.11625,501.97683
3193.79216,504.18294
3193.79216,503.07988
3195.46806,505.28599
3195.46806,506.38905
3195.46806,507.4921
3195.46806,508.59516
3195.46806,509.69821
3195.46806,504.18294
3197.14397,509.69821
3198.81987,509.69821
3200.49578,508.59516
3202.17168,507.4921
3203.84759,506.38905
3205.52349,507.4921
3207.1994,508.59516
3208.8753,508.59516
3208.8753,509.69821
3210.55121,508.59516
3212.22711,508.59516
3213.90302,507.4921
3215.57892,506.38905
3215.57892,507.4921
3217.25483,505.28599
3217.25483,506.38905
3218.93073,505.28599
3220.60664,505.28599
3222.28254,504.18294
3222.28254,505.28599
3223.95845,504.18294
3225.63435,503.07988
3225.63435,504.18294
3227.31026,503.07988
3228.98616,503.07988
3230.66207,501.97683
3230.66207,499.77072
3230.66207,498.66766
3230.66207,497.56461
3230.66207,496.46155
3230.66207,500.87377
3232.33797,496.46155
3234.01388,495.3585
3235.68978,496.46155
3237.36569,497.56461
3239.04159,498.66766
3240.7175,499.77072
3242.3934,499.77072
3244.06931,499.77072
3245.74521,498.66766
3247.42112,497.56461
3249.09702,497.56461
3250.77293,498.66766
3250.77293,497.56461
3252.44883,498.66766
3254.12474,498.66766
3254.12474,500.87377
3254.12474,501.97683
3254.12474,503.07988
3254.12474,504.18294
3254.12474,499.77072
3255.80064,504.18294
3257.47655,505.28599
3259.15245,505.28599
3260.82836,505.28599
3262.50426,504.18294
3264.18016,503.07988
3265.85607,501.97683
3267.53197,500.87377
3269.20788,500.87377
3270.88378,500.87377
3272.55969,500.87377
3274.23559,500.87377
3275.9115,499.77072
3277.5874,499.77072
3279.26331,499.77072
3280.93921,499.77072
3282.61512,499.77072
3284.29102,499.77072
3285.96693,499.77072
3287.64283,500.87377
3289.31874,501.97683
3290.99464,503.07988
3292.67055,501.97683
3292.67055,503.07988
3294.34645,501.97683
3296.02236,501.97683
3297.69826,499.77072
3297.69826,498.66766
3297.69826,497.56461
3297.69826,496.46155
3297.69826,495.3585
3297.69826,500.87377
3299.37417,495.3585
3301.05007,495.3585
3302.72598,495.3585
3304.40188,495.3585
3306.07779,494.25544
3307.75369,494.25544
3309.4296,494.25544
3311.1055,494.25544
3312.78141,493.15239
3314.45731,493.15239
3316.13322,493.15239
3317.80912,493.15239
3319.48503,493.15239
3321.16093,493.15239
3322.83684,494.25544
3324.51274,495.3585
3326.18865,495.3585
3326.18865,496.46155
3327.86455,494.25544
3327.86455,492.04933
3327.86455,493.15239
3329.54046,490.94627
3331.21636,490.94627
3332.89227,492.04933
3334.56817,490.94627
3336.24408,490.94627
3337.91998,492.04933
3337.91998,490.94627
3339.59589,493.15239
3341.27179,493.15239
3341.27179,495.3585
3341.27179,496.46155
3341.27179,494.25544
3341.27179,497.56461
3342.9477,497.56461
3344.6236,496.46155
3346.2995,495.3585
3347.97541,496.46155
3349.65131,497.56461
3351.32722,498.66766
3353.00312,498.66766
3354.67903,497.56461
3356.35493,496.46155
3356.35493,497.56461
3358.03084,496.46155
3359.70674,495.3585
3359.70674,496.46155
3361.38265,495.3585
3361.38265,493.15239
3361.38265,494.25544
3363.05855,493.15239
3364.73446,492.04933
3364.73446,493.15239
3366.41036,490.94627
3366.41036,492.04933
3368.08627,489.84322
3368.08627,490.94627
3369.76217,489.84322
3371.43808,489.84322
3373.11398,487.63711
3373.11398,488.74016
3374.78989,487.63711
3374.78989,485.431
3374.78989,484.32794
3374.78989,486.53405
3374.78989,483.22489
3376.46579,482.12183
3378.1417,482.12183
3379.8176,482.12183
3381.49351,483.22489
3383.16941,484.32794
3384.84532,485.431
3386.52122,484.32794
3388.19713,483.22489
3389.87303,482.12183
3391.54894,481.01878
3393.22484,481.01878
3394.90075,482.12183
3396.57665,483.22489
3396.57665,482.12183
3396.57665,485.431
3396.57665,486.53405
3396.57665,484.32794
3398.25256,487.63711
3399.92846,487.63711
3401.60437,487.63711
3403.28027,486.53405
3404.95618,485.431
3406.63208,484.32794
3408.30799,484.32794
3409.98389,485.431
3411.6598,486.53405
3413.3357,487.63711
3415.01161,487.63711
3416.68751,486.53405
3418.36342,485.431
3418.36342,486.53405
3420.03932,484.32794
3420.03932,485.431
3421.71523,485.431
3423.39113,485.431
3425.06704,484.32794
3426.74294,483.22489
3428.41885,482.12183
3430.09475,481.01878
3431.77065,479.91572
3433.44656,478.81267
3435.12246,478.81267
3436.79837,479.91572
3438.47427,479.91572
3438.47427,481.01878
3440.15018,482.12183
3440.15018,481.01878
3441.82608,482.12183
3443.50199,482.12183
3445.17789,483.22489
3446.8538,484.32794
3446.8538,485.431
3446.8538,486.53405
3446.8538,487.63711
3446.8538,488.74016
3446.8538,483.22489
3448.5297,489.84322
3450.20561,489.84322
3451.88151,489.84322
3453.55742,489.84322
3455.23332,488.74016
3456.90923,487.63711
3458.58513,488.74016
3460.26104,489.84322
3461.93694,490.94627
3463.61285,490.94627
3465.28875,490.94627
3466.96466,489.84322
3468.64056,490.94627
3470.31647,490.94627
3471.99237,490.94627
3473.66828,490.94627
3475.34418,490.94627
3477.02009,490.94627
3478.69599,490.94627
3480.3719,492.04933
3482.0478,492.04933
3483.72371,492.04933
3485.39961,490.94627
3487.07552,489.84322
3488.75142,490.94627
3490.42733,492.04933
3492.10323,492.04933
3493.77914,492.04933
3495.45504,490.94627
3497.13095,489.84322
3497.13095,490.94627
3498.80685,489.84322
3500.48276,489.84322
3500.48276,488.74016
3502.15866,488.74016
3503.83457,486.53405
3503.83457,487.63711
3505.51047,485.431
3505.51047,484.32794
3505.51047,483.22489
3505.51047,482.12183
3505.51047,481.01878
3505.51047,486.53405
3507.18638,481.01878
3508.86228,479.91572
3510.53819,479.91572
3512.21409,481.01878
3513.88999,481.01878
3515.5659,479.91572
3517.2418,479.91572
3518.91771,479.91572
3520.59361,479.91572
3522.26952,481.01878
3523.94542,482.12183
3525.62133,482.12183
3525.62133,481.01878
3527.29723,481.01878
3528.97314,479.91572
3530.64904,478.81267
3532.32495,477.70961
3534.00085,476.60656
3535.67676,476.60656
3537.35266,476.60656
3539.02857,478.81267
3539.02857,477.70961
3540.70447,478.81267
3542.38038,479.91572
3542.38038,478.81267
3544.05628,481.01878
3544.05628,482.12183
3544.05628,479.91572
3545.73219,482.12183
3547.40809,483.22489
3547.40809,482.12183
3549.084,483.22489
3549.084,484.32794
3549.084,486.53405
3549.084,487.63711
3549.084,488.74016
3549.084,489.84322
3549.084,485.431
3550.7599,489.84322
3552.43581,489.84322
3554.11171,489.84322
3555.78762,489.84322
3557.46352,489.84322
3559.13943,489.84322
3560.81533,488.74016
3562.49124,488.74016
3564.16714,489.84322
3565.84305,489.84322
3567.51895,489.84322
3569.19486,488.74016
3570.87076,487.63711
3572.54667,486.53405
3574.22257,486.53405
3575.89848,486.53405
3577.57438,487.63711
3577.57438,488.74016
3577.57438,486.53405
3577.57438,490.94627
3577.57438,492.04933
3577.57438,493.15239
3577.57438,494.25544
3577.57438,489.84322
3579.25029,494.25544
3579.25029,496.46155
3579.25029,495.3585
3580.92619,497.56461
3582.6021,498.66766
3584.278,499.77072
3585.95391,499.77072
3587.62981,499.77072
3589.30572,499.77072
3590.98162,499.77072
3592.65753,500.87377
3592.65753,501.97683
3592.65753,499.77072
3594.33343,504.18294
3594.33343,505.28599
3594.33343,506.38905
3594.33343,507.4921
3594.33343,508.59516
3594.33343,503.07988
3596.00933,510.80127
3596.00933,511.90432
3596.00933,509.69821
3597.68524,514.11043
3597.68524,513.00738
3599.36114,516.31654
3599.36114,517.4196
3599.36114,515.21349
3599.36114,520.72876
3601.03705,519.62571
3601.03705,521.83182
3601.03705,518.52265
3601.03705,525.14098
3602.71295,522.93487
3602.71295,526.24404
3602.71295,527.3471
3602.71295,524.03793
3602.71295,550.51125
3602.71295,530.65626
3602.71295,551.61431
3602.71295,549.4082
3602.71295,552.71736
3604.38886,531.75932
3604.38886,548.30514
3604.38886,528.45015
3604.38886,558.23264
3604.38886,557.12958
3604.38886,536.17154
3604.38886,554.92347
3604.38886,553.82042
3604.38886,529.55321
3604.38886,532.86237
3606.06476,537.27459
3606.06476,533.96543
3606.06476,535.06848
3606.06476,556.02653
3606.06476,547.20209
3606.06476,561.54181
3606.06476,560.43875
3606.06476,541.68681
3606.06476,538.37765
3606.06476,559.33569
3607.74067,539.4807
3607.74067,540.58376
3607.74067,542.78987
3607.74067,546.09903
3607.74067,562.64486
3607.74067,563.74792
3607.74067,564.85097
3607.74067,565.95403
3607.74067,567.05708
3607.74067,569.26319
3607.74067,570.36625
3607.74067,571.4693
3607.74067,543.89292
3609.41657,575.88152
3609.41657,544.99598
3609.41657,568.16014
3609.41657,572.57236
3609.41657,573.67541
3609.41657,576.98458
3611.09248,579.19069
3611.09248,574.77847
3611.09248,578.08763
3611.09248,580.29374
3612.76838,580.29374
3614.44429,580.29374
3616.12019,581.3968
3616.12019,580.29374
3616.12019,582.49985
3616.12019,584.70596
3616.12019,583.60291
3617.7961,585.80902
3619.472,585.80902
3621.14791,585.80902
3622.82381,585.80902
3624.49972,584.70596
3626.17562,582.49985
3626.17562,583.60291
3626.17562,581.3968
3627.85153,580.29374
3629.52743,578.08763
3629.52743,580.29374
3629.52743,579.19069
3631.20334,578.08763
3631.20334,576.98458
3632.87924,575.88152
3632.87924,576.98458
3634.55515,575.88152
3634.55515,574.77847
3636.23105,573.67541
3636.23105,574.77847
3637.90696,573.67541
3639.58286,572.57236
3639.58286,573.67541
3641.25877,571.4693
3641.25877,572.57236
3642.93467,571.4693
3644.61058,572.57236
3646.28648,571.4693
3647.96239,571.4693
3649.63829,571.4693
3651.3142,573.67541
3651.3142,571.4693
3651.3142,572.57236
3651.3142,576.98458
3651.3142,574.77847
3651.3142,575.88152
3652.9901,576.98458
3652.9901,578.08763
3654.66601,578.08763
3654.66601,579.19069
3656.34191,579.19069
3658.01782,579.19069
3659.69372,579.19069
3661.36963,589.11818
3661.36963,579.19069
3661.36963,580.29374
3663.04553,591.32429
3663.04553,581.3968
3663.04553,580.29374
3663.04553,588.01513
3663.04553,582.49985
3663.04553,590.22124
3663.04553,592.42735
3664.72144,593.5304
3664.72144,583.60291
3664.72144,582.49985
3664.72144,586.91207
3664.72144,596.83957
3664.72144,595.73652
3664.72144,597.94263
3666.39734,583.60291
3666.39734,602.35485
3666.39734,594.63346
3666.39734,585.80902
3666.39734,584.70596
3666.39734,599.04568
3666.39734,603.4579
3666.39734,600.14874
3668.07325,601.25179
3668.07325,604.56096
3668.07325,605.66401
3668.07325,606.76707
3668.07325,607.87012
3668.07325,608.97318
3668.07325,610.07623
3669.74915,611.17929
3671.42506,612.28234
3671.42506,613.3854
3671.42506,614.48845
3671.42506,615.59151
3673.10096,616.69456
3673.10096,623.31289
3673.10096,618.90067
3673.10096,620.00373
3673.10096,621.10678
3673.10096,624.41595
3674.77687,617.79762
3674.77687,622.20984
3674.77687,625.519
3674.77687,626.62206
3674.77687,627.72511
3674.77687,628.82817
3676.45277,629.93123
3676.45277,631.03428
3676.45277,632.13734
3678.12868,633.24039
3679.80458,633.24039
3679.80458,634.34345
3679.80458,635.4465
3679.80458,636.54956
3681.48048,636.54956
3681.48048,637.65261
3681.48048,638.75567
3683.15639,638.75567
3684.83229,639.85872
3686.5082,639.85872
3686.5082,640.96178
3686.5082,642.06483
3688.1841,643.16789
3688.1841,644.27094
3699.91544,627.72511
3699.91544,633.24039
3699.91544,632.13734
3699.91544,631.03428
3699.91544,629.93123
3699.91544,628.82817
3701.59134,634.34345
3701.59134,626.62206
3701.59134,625.519
3701.59134,624.41595
3703.26725,623.31289
3703.26725,622.20984
3704.94315,621.10678
3704.94315,620.00373
3704.94315,618.90067
3704.94315,617.79762
3704.94315,616.69456
3704.94315,615.59151
3706.61906,614.48845
3706.61906,613.3854
3706.61906,612.28234
3708.29496,611.17929
3708.29496,610.07623
3708.29496,608.97318
3708.29496,607.87012
3708.29496,606.76707
3708.29496,605.66401
3708.29496,604.56096
3709.97087,603.4579
3709.97087,602.35485
3709.97087,601.25179
3709.97087,600.14874
3709.97087,599.04568
3709.97087,597.94263
3709.97087,596.83957
3709.97087,592.42735
3711.64677,594.63346
3711.64677,593.5304
3711.64677,595.73652
3711.64677,591.32429
3711.64677,590.22124
3713.32268,589.11818
3713.32268,588.01513
3713.32268,586.91207
3713.32268,585.80902
3713.32268,584.70596
3713.32268,583.60291
3713.32268,582.49985
3713.32268,581.3968
3714.99858,580.29374
3714.99858,579.19069
3714.99858,575.88152
3714.99858,574.77847
3716.67449,578.08763
3716.67449,576.98458
3716.67449,573.67541
3716.67449,572.57236
3716.67449,563.74792
3716.67449,568.16014
3716.67449,569.26319
3718.35039,570.36625
3718.35039,567.05708
3718.35039,565.95403
3718.35039,564.85097
3718.35039,571.4693
3718.35039,562.64486
3718.35039,561.54181
3718.35039,560.43875
3720.0263,559.33569
3720.0263,558.23264
3720.0263,557.12958
3720.0263,556.02653
3720.0263,554.92347
3720.0263,553.82042
3720.0263,552.71736
3720.0263,551.61431
3721.7022,550.51125
3721.7022,549.4082
3721.7022,544.99598
3721.7022,537.27459
3721.7022,546.09903
3723.37811,548.30514
3723.37811,547.20209
3723.37811,542.78987
3723.37811,541.68681
3723.37811,540.58376
3723.37811,539.4807
3723.37811,538.37765
3723.37811,543.89292
3723.37811,536.17154
3723.37811,535.06848
3725.05401,533.96543
3725.05401,514.11043
3725.05401,530.65626
3726.72992,531.75932
3726.72992,529.55321
3726.72992,528.45015
3726.72992,527.3471
3726.72992,526.24404
3726.72992,525.14098
3726.72992,532.86237
3726.72992,513.00738
3726.72992,511.90432
3726.72992,510.80127
3726.72992,515.21349
3728.40582,522.93487
3728.40582,524.03793
3728.40582,521.83182
3728.40582,516.31654
3728.40582,517.4196
3728.40582,509.69821
3728.40582,510.80127
3728.40582,520.72876
3728.40582,508.59516
3730.08173,510.80127
3730.08173,507.4921
3730.08173,508.59516
3730.08173,518.52265
3730.08173,519.62571
3730.08173,506.38905
3731.75763,510.80127
3731.75763,505.28599
3731.75763,504.18294
3733.43354,504.18294
3733.43354,510.80127
3735.10944,504.18294
3735.10944,503.07988
3735.10944,501.97683
3735.10944,500.87377
3735.10944,499.77072
3735.10944,510.80127
3736.78535,498.66766
3736.78535,509.69821
3736.78535,508.59516
3736.78535,499.77072
3736.78535,507.4921
3736.78535,497.56461
3736.78535,506.38905
3736.78535,504.18294
3736.78535,501.97683
3738.46125,503.07988
3738.46125,504.18294
3738.46125,505.28599
3738.46125,506.38905
3738.46125,501.97683
3738.46125,496.46155
3738.46125,497.56461
3740.13716,501.97683
3740.13716,496.46155
3741.81306,496.46155
3741.81306,500.87377
3741.81306,501.97683
3743.48897,496.46155
3743.48897,499.77072
3743.48897,497.56461
3743.48897,498.66766
3745.16487,497.56461
3745.16487,496.46155
3745.16487,495.3585
3746.84078,497.56461
3746.84078,495.3585
3746.84078,494.25544
3746.84078,493.15239
3748.51668,493.15239
3748.51668,492.04933
3748.51668,490.94627
3748.51668,489.84322
3748.51668,488.74016
3750.19259,488.74016
3751.86849,488.74016
3753.5444,487.63711
3755.2203,487.63711
3756.89621,487.63711
3758.57211,487.63711
3760.24802,487.63711
3761.92392,488.74016
3763.59982,488.74016
3765.27573,489.84322
3766.95163,490.94627
3768.62754,490.94627
3770.30344,490.94627
3771.97935,490.94627
3773.65525,489.84322
3773.65525,488.74016
3773.65525,487.63711
3773.65525,486.53405
3775.33116,485.431
3777.00706,485.431
3777.00706,484.32794
3778.68297,484.32794
3780.35887,484.32794
3780.35887,483.22489
3782.03478,483.22489
3782.03478,482.12183
3782.03478,481.01878
3782.03478,479.91572
3782.03478,478.81267
3782.03478,477.70961
3783.71068,477.70961
3785.38659,476.60656
3787.06249,477.70961
3788.7384,478.81267
3790.4143,477.70961
3792.09021,477.70961
3793.76611,477.70961
3795.44202,478.81267
3797.11792,479.91572
3797.11792,481.01878
3797.11792,482.12183
3797.11792,483.22489
3797.11792,484.32794
3798.79383,485.431
3800.46973,485.431
3802.14564,485.431
3803.82154,485.431
3805.49745,484.32794
3807.17335,484.32794
3808.84926,485.431
3808.84926,484.32794
3810.52516,484.32794
3810.52516,483.22489
3812.20107,483.22489
3812.20107,482.12183
3812.20107,481.01878
3813.87697,481.01878
3813.87697,479.91572
3813.87697,478.81267
3813.87697,477.70961
3815.55288,477.70961
3817.22878,477.70961
3818.90469,477.70961
3820.58059,478.81267
3822.2565,478.81267
3823.9324,477.70961
3825.60831,476.60656
3827.28421,476.60656
3828.96012,476.60656
3830.63602,477.70961
3832.31193,477.70961
3833.98783,477.70961
3835.66374,477.70961
3835.66374,478.81267
3837.33964,478.81267
3837.33964,479.91572
3839.01555,479.91572
3840.69145,479.91572
3840.69145,481.01878
3842.36736,481.01878
3844.04326,481.01878
3845.71916,482.12183
3847.39507,487.63711
3847.39507,483.22489
3847.39507,484.32794
3847.39507,485.431
3847.39507,486.53405
3849.07097,488.74016
3850.74688,488.74016
3852.42278,487.63711
3854.09869,486.53405
3855.77459,487.63711
3857.4505,488.74016
3859.1264,488.74016
3860.80231,487.63711
3862.47821,488.74016
3864.15412,489.84322
3865.83002,489.84322
3867.50593,489.84322
3869.18183,490.94627
3870.85774,490.94627
3872.53364,489.84322
3874.20955,488.74016
3875.88545,487.63711
3877.56136,486.53405
3879.23726,486.53405
3880.91317,486.53405
3882.58907,485.431
3884.26498,485.431
3885.94088,486.53405
3887.61679,487.63711
3889.29269,488.74016
3890.9686,487.63711
3892.6445,486.53405
3894.32041,486.53405
3895.99631,487.63711
3897.67222,488.74016
3899.34812,487.63711
3901.02403,487.63711
3902.69993,488.74016
3904.37584,489.84322
3906.05174,488.74016
3906.05174,487.63711
3906.05174,486.53405
3906.05174,485.431
3906.05174,484.32794
3907.72765,483.22489
3909.40355,483.22489
3911.07946,483.22489
3912.75536,482.12183
3914.43127,482.12183
3916.10717,483.22489
3917.78308,484.32794
3919.45898,485.431
3921.13489,485.431
3922.81079,484.32794
3924.4867,484.32794
3926.1626,484.32794
3927.8385,485.431
3929.51441,484.32794
3931.19031,484.32794
3932.86622,485.431
3934.54212,485.431
3936.21803,485.431
3937.89393,486.53405
3939.56984,486.53405
3941.24574,486.53405
3942.92165,487.63711
3942.92165,488.74016
3942.92165,489.84322
3944.59755,488.74016
3946.27346,488.74016
3947.94936,488.74016
3949.62527,488.74016
3951.30117,488.74016
3952.97708,488.74016
3954.65298,489.84322
3956.32889,489.84322
3958.00479,489.84322
3959.6807,489.84322
3961.3566,490.94627
3963.03251,492.04933
3964.70841,493.15239
3966.38432,492.04933
3968.06022,492.04933
3969.73613,492.04933
3971.41203,492.04933
3973.08794,490.94627
3974.76384,490.94627
3976.43975,489.84322
3978.11565,488.74016
3979.79156,487.63711
3981.46746,486.53405
3983.14337,485.431
3984.81927,484.32794
3986.49518,484.32794
3988.17108,484.32794
3989.84699,485.431
3991.52289,486.53405
3993.1988,486.53405
3994.8747,484.32794
3994.8747,485.431
