Wavenumber (cm⁻¹),Intensity
200.0,165.6502670192907
201.00097751710655,162.4244678671209
202.0019550342131,161.69153510488792
203.00293255131965,164.49554298678615
204.0039100684262,169.26498123418577
205.00488758553274,176.87966502767316
206.0058651026393,188.92367945894097
207.00684261974584,205.85936497765647
208.0078201368524,229.98887827736797
209.00879765395894,264.3346305504202
210.00977517106548,308.37102446730796
211.01075268817203,357.3249445752663
212.01173020527858,394.4085629115285
213.01270772238513,394.0490423805881
214.01368523949168,355.29406145028963
215.01466275659823,292.98497716423987
216.01564027370478,240.7286956065267
217.01661779081132,200.53988627190637
218.01759530791787,172.9431131016491
219.01857282502445,157.51809385638285
220.019550342131,148.3245274293408
221.02052785923755,141.68114888108659
222.0215053763441,136.84808753281453
223.02248289345064,133.55026775322932
224.0234604105572,131.14944398729654
225.02443792766374,128.73130354152764
226.0254154447703,127.47494004625266
227.02639296187684,126.40779166896293
228.02737047898339,124.84383654030316
229.02834799608993,123.95676935820387
230.02932551319648,123.64021716135602
231.03030303030303,123.07991455438014
232.03128054740958,122.1029941536326
233.03225806451613,121.24630153428214
234.03323558162268,122.10588534314378
235.03421309872923,121.48477547482369
236.03519061583577,120.16309665253615
237.03616813294232,120.2005161051063
238.03714565004887,122.28632577579393
239.03812316715542,123.35694157124165
240.03910068426197,123.36909296722975
241.04007820136852,123.16342565253474
242.04105571847506,123.26360796734228
243.0420332355816,123.28317083625058
244.0430107526882,124.45154431106744
245.04398826979474,125.37965464983658
246.0449657869013,125.45001763920595
247.04594330400784,125.44512119630576
248.04692082111438,126.63238988789881
249.04789833822093,127.31181777755069
250.04887585532748,127.81836397923472
251.04985337243403,128.76115319603082
252.05083088954058,129.2667150095207
253.05180840664713,131.0571974034056
254.05278592375367,132.5285623017821
255.05376344086022,133.77492009331934
256.05474095796677,136.55493403059242
257.0557184750733,139.2277634776008
258.05669599217987,143.47067128086368
259.0576735092864,148.54481616123104
260.05865102639297,154.0503876299379
261.0596285434995,162.0989670484498
262.06060606060606,167.65901323376883
263.0615835777126,173.52506880272708
264.06256109481916,179.1286419333756
265.0635386119257,181.74230133606167
266.06451612903226,184.12914346909685
267.0654936461388,187.008032469745
268.06647116324535,194.32948871735186
269.0674486803519,205.22764666661783
270.06842619745845,216.0062134629715
271.069403714565,230.70832432332637
272.07038123167155,246.43567480013198
273.0713587487781,261.76651481497044
274.07233626588464,274.7164592203019
275.0733137829912,281.323162281587
276.07429130009774,279.29420127843673
277.0752688172043,269.3430110247951
278.07624633431084,253.60040889710882
279.0772238514174,234.6219926237302
280.07820136852393,212.6659408785051
281.0791788856305,194.66626959429072
282.08015640273703,179.95064811397592
283.0811339198436,167.9247253415383
284.08211143695013,160.018882894485
285.0830889540567,154.20567654469798
286.0840664711632,151.41823817026886
287.0850439882698,150.56962912964482
288.0860215053764,150.46978557730475
289.0869990224829,151.6679959860768
290.0879765395895,154.2234930854808
291.088954056696,158.69628375069402
292.0899315738026,162.03119337514704
293.0909090909091,161.6308667816937
294.09188660801567,160.07972379222298
295.0928641251222,156.02020998803073
296.09384164222877,150.881388514995
297.0948191593353,145.73826661076507
298.09579667644186,141.11793439751088
299.0967741935484,138.42421427892745
300.09775171065496,136.1353750788492
301.0987292277615,135.24029555143542
302.09970674486806,136.20703972995713
303.1006842619746,138.06477564396806
304.10166177908116,140.54157973893544
305.1026392961877,143.78948862685914
306.10361681329425,147.7268384002622
307.1045943304008,151.8318719043011
308.10557184750735,155.21654404258985
309.1065493646139,157.85038540654762
310.10752688172045,159.38241821332747
311.108504398827,158.42377849531286
312.10948191593354,154.48696227970115
313.1104594330401,150.52611447597187
314.11143695014664,147.64364368570978
315.1124144672532,145.89531641904316
316.11339198435974,145.32007994526634
317.1143695014663,145.78248656598302
318.11534701857283,146.54590093033428
319.1163245356794,149.61314155862993
320.11730205278593,153.9245304742632
321.1182795698925,158.80154468554906
322.119257086999,164.69161131865852
323.1202346041056,171.29128895780687
324.1212121212121,178.3640051485609
325.1221896383187,188.58035658057977
326.1231671554252,201.74238493305964
327.12414467253177,215.08975027282688
328.1251221896383,231.49872773315988
329.12609970674487,252.13263611581093
330.1270772238514,276.5374255232335
331.12805474095796,306.2883218212396
332.1290322580645,345.5784393545718
333.13000977517106,391.22076404785025
334.1309872922776,446.9803320491996
335.13196480938416,513.1335610252233
336.1329423264907,584.7120892409833
337.13391984359725,650.8509486147186
338.1348973607038,706.2281204252403
339.13587487781035,737.2922007412176
340.1368523949169,733.6893459864123
341.13782991202345,695.637851745024
342.13880742913,639.9452725594072
343.13978494623655,583.8134274183527
344.1407624633431,532.4728018058828
345.14173998044964,486.6174557892804
346.1427174975562,443.8167738225349
347.14369501466274,399.0342873560871
348.1446725317693,352.65406185294796
349.14565004887584,312.1022810251407
350.1466275659824,280.75094882196106
351.14760508308893,258.01329980257043
352.1485826001955,239.98526878093796
353.14956011730203,227.1370958716177
354.1505376344086,218.83496851476403
355.1515151515151,215.37142455287008
356.1524926686217,216.31642878717918
357.1534701857282,218.6730753159998
358.1544477028348,225.37454413805017
359.1554252199413,235.5159669190936
360.15640273704787,249.41811475085615
361.1573802541544,267.9742357448656
362.15835777126097,289.2559225983455
363.1593352883675,317.5674629133932
364.16031280547406,349.68715453160445
365.1612903225806,380.5150018494349
366.16226783968716,404.05596312225924
367.1632453567937,415.09536561033576
368.16422287390026,409.9915329566215
369.1652003910068,393.52569913012996
370.16617790811335,373.66546889733655
371.1671554252199,358.28506264838416
372.16813294232645,351.55518689135573
373.169110459433,356.0032807884735
374.17008797653955,368.89411412807146
375.1710654936461,393.1173335594331
376.1720430107527,430.17246604251267
377.17302052785925,474.9088199681744
378.1739980449658,535.0819912169038
379.17497556207235,605.9930825782607
380.1759530791789,685.6353961400548
381.17693059628544,771.8686091788267
382.177908113392,855.3510110193469
383.17888563049854,917.7465532855102
384.1798631476051,941.0109901990984
385.18084066471164,920.779564543739
386.1818181818182,858.9634118515573
387.18279569892474,764.4840163480551
388.1837732160313,659.7253895386581
389.18475073313783,558.7693735288103
390.1857282502444,471.7321052027581
391.18670576735093,403.4531957314491
392.1876832844575,349.08368448235746
393.188660801564,306.26176499977714
394.1896383186706,271.99306079256183
395.1906158357771,244.4253731572105
396.1915933528837,222.07620529834202
397.1925708699902,204.14647423089735
398.19354838709677,191.44495460652675
399.1945259042033,178.19502499325338
400.19550342130987,167.1490194735563
401.1964809384164,159.86765523032489
402.19745845552296,152.07702479949353
403.1984359726295,145.12624761165134
404.19941348973606,140.59960230114947
405.2003910068426,136.3619339761913
406.20136852394916,131.3702536282873
407.2023460410557,127.37986760324605
408.20332355816225,123.6988508826345
409.20430107526886,121.30702234650322
410.2052785923754,118.4315371838502
411.20625610948196,115.47339693674799
412.2072336265885,113.80115459092464
413.20821114369505,110.8329018494964
414.2091886608016,109.83168792331448
415.21016617790815,108.70238604788472
416.2111436950147,106.55075266517875
417.21212121212125,104.67040919210777
418.2130987292278,104.79694251611402
419.21407624633434,103.19683822140544
420.2150537634409,101.95196175669616
421.21603128054744,101.33533830425415
422.217008797654,100.49603111442421
423.21798631476054,99.31719473869714
424.2189638318671,98.91595955623643
425.21994134897363,99.19840867030302
426.2209188660802,98.84316729078728
427.22189638318673,97.8892000214218
428.2228739002933,98.18340385748812
429.2238514173998,98.57206048922481
430.2248289345064,98.16023129510575
431.2258064516129,96.98668052953809
432.2267839687195,96.45514923272816
433.227761485826,97.48635859546141
434.22873900293257,97.28681031744063
435.2297165200391,96.81124053865814
436.23069403714567,96.92236354863041
437.2316715542522,96.73728988735742
438.23264907135876,95.74707257273501
439.2336265884653,96.38735557402923
440.23460410557186,95.66456969137953
441.2355816226784,95.22575664839346
442.23655913978496,95.22770887483746
443.2375366568915,95.17157967647651
444.23851417399806,94.99859549817896
445.2394916911046,94.77733990385417
446.24046920821115,95.07463169530787
447.2414467253177,95.15779888191261
448.24242424242425,95.03220182949596
449.2434017595308,95.44447293620104
450.24437927663735,95.2567357778194
451.2453567937439,96.18928557604264
452.24633431085044,96.57460430317994
453.247311827957,96.13163365114194
454.24828934506354,96.26873191317797
455.2492668621701,98.09702649610908
456.25024437927664,98.17289773931579
457.2512218963832,98.54915767430411
458.25219941348973,99.41916437380813
459.2531769305963,100.32921704746444
460.25415444770283,101.32441224848603
461.2551319648094,101.09560821692243
462.2561094819159,101.68664911032968
463.2570869990225,101.22076342167888
464.258064516129,100.30391926986103
465.2590420332356,100.7141955007854
466.2600195503421,100.09757101253211
467.26099706744867,99.62915875239463
468.2619745845552,98.68153531989104
469.26295210166177,97.99509034222831
470.2639296187683,97.83450366071439
471.26490713587486,97.45848431181965
472.2658846529814,97.63450765364871
473.26686217008796,98.6225289968266
474.2678396871945,99.02432188345101
475.26881720430106,98.39279332053094
476.2697947214076,97.65703379067835
477.27077223851416,98.64662091725614
478.2717497556207,98.60551492875845
479.27272727272725,98.43093678688585
480.2737047898338,99.29935876555058
481.27468230694035,101.03944059855027
482.2756598240469,102.27872562360054
483.27663734115345,104.08344909404785
484.27761485826,106.19733200560515
485.27859237536654,108.9457244347037
486.2795698924731,112.46033952510614
487.28054740957964,116.65195298969975
488.2815249266862,121.7078439722718
489.2825024437928,129.3719508732264
490.28347996089934,138.3690381389827
491.2844574780059,149.70021646328593
492.28543499511244,164.45851847626992
493.286412512219,182.2925441235125
494.28739002932554,200.79687127778243
495.2883675464321,216.31591954211027
496.28934506353863,224.32935467124832
497.2903225806452,222.17937651757384
498.29130009775173,209.79641352884835
499.2922776148583,189.61079650299848
500.2932551319648,170.89248472214905
501.2942326490714,153.7461833992609
502.2952101661779,142.51704125722344
503.2961876832845,135.44748496395434
504.297165200391,125.6352613769018
505.29814271749757,120.46326649835352
506.2991202346041,117.04131994353835
507.30009775171067,114.95241173073248
508.3010752688172,113.23713678953864
509.30205278592376,111.31645644160659
510.3030303030303,111.25478192629467
511.30400782013686,113.09265413445533
512.3049853372434,111.73363562614954
513.3059628543499,109.45482373543739
514.3069403714564,108.64926646621586
515.307917888563,108.76481538868619
516.3088954056695,109.83189518064391
517.3098729227761,111.08910993908404
518.3108504398826,112.2669109557343
519.3118279569892,113.38480426494297
520.3128054740957,115.13818786932069
521.3137829912023,118.48067539576655
522.3147605083088,122.25955470077031
523.3157380254154,126.14306628543072
524.3167155425219,131.43943299476055
525.3176930596285,138.99966186087494
526.318670576735,147.9584706363547
527.3196480938416,156.62978372126784
528.3206256109481,167.18230791725932
529.3216031280547,178.40816041992227
530.3225806451612,191.67535898254164
531.3235581622678,207.96496058785138
532.3245356793743,228.84149039442343
533.3255131964809,257.9730018285083
534.3264907135874,294.40146335180447
535.327468230694,339.5765239197248
536.3284457478005,396.7346621782343
537.3294232649071,469.0302083723329
538.3304007820136,555.5014112894344
539.3313782991202,647.1119484293047
540.3323558162267,734.454267300312
541.3333333333333,795.0591022955093
542.3343108504398,809.257400643702
543.3352883675464,768.5271684426677
544.3362658846529,685.3299068539436
545.3372434017595,587.750468620496
546.338220918866,491.25364181746426
547.3391984359725,414.38638205219615
548.3401759530791,355.191758946111
549.3411534701856,308.53579195995013
550.3421309872922,274.3037982973465
551.3431085043987,247.66485007352938
552.3440860215054,228.37270056317143
553.345063538612,213.54532040226758
554.3460410557185,202.749501509829
555.347018572825,194.99417752850187
556.3479960899316,188.22763843252122
557.3489736070381,184.38696509777301
558.3499511241447,180.8377921069296
559.3509286412512,178.90193509345207
560.3519061583578,175.93173680306285
561.3528836754643,170.59378968939453
562.3538611925709,164.7918130188169
563.3548387096774,158.54869929742847
564.355816226784,151.48224887960632
565.3567937438905,144.32004602155385
566.3577712609971,138.7743731177928
567.3587487781036,134.58430497507732
568.3597262952102,129.66459846577266
569.3607038123167,125.70879262117512
570.3616813294233,122.90938998668447
571.3626588465298,120.50981680354347
572.3636363636364,118.8659330957365
573.3646138807429,117.89018577871784
574.3655913978495,116.42127822340883
575.366568914956,113.53481593918595
576.3675464320626,112.11625247099335
577.3685239491691,111.43027735828282
578.3695014662757,110.34070221665843
579.3704789833822,108.78865733718744
580.3714565004888,107.53983294721304
581.3724340175953,107.17210484652615
582.3734115347019,107.04789203608439
583.3743890518084,106.87754313007831
584.375366568915,106.35424384112517
585.3763440860215,105.30142845069413
586.377321603128,103.81168275699152
587.3782991202346,102.18915757125622
588.3792766373411,101.38888138778641
589.3802541544477,100.68723993136093
590.3812316715542,100.0759778767258
591.3822091886608,99.34604600500796
592.3831867057673,97.99606836525321
593.3841642228739,96.82662451139049
594.3851417399804,96.04589884865027
595.386119257087,94.86273671135548
596.3870967741935,93.765179940984
597.3880742913001,92.83596648041538
598.3890518084066,91.92410894092784
599.3900293255132,91.93656001040779
600.3910068426197,91.69378502023464
601.3919843597263,91.00011072524835
602.3929618768328,90.37838352437193
603.3939393939394,89.84829506269917
604.3949169110459,89.25061046942314
605.3958944281525,89.0022086267375
606.396871945259,88.84021928293312
607.3978494623656,88.09670300914685
608.3988269794721,87.72554596651015
609.3998044965787,87.59862958547274
610.4007820136852,87.38907352113584
611.4017595307918,87.68407115130468
612.4027370478983,87.50497989124032
613.4037145650049,87.05937775384169
614.4046920821114,86.65132060699312
615.405669599218,86.38181329135139
616.4066471163245,86.25986085704183
617.4076246334312,86.22994791037168
618.4086021505377,86.09558833017735
619.4095796676443,86.55220864436569
620.4105571847508,86.53423827373555
621.4115347018574,86.23165443185289
622.4125122189639,86.23295198172585
623.4134897360705,86.32661883663707
624.414467253177,86.16726443753632
625.4154447702836,86.44249306434685
626.4164222873901,86.68505607194454
627.4173998044967,86.9750761990968
628.4183773216032,86.73906015811397
629.4193548387098,85.90172950973897
630.4203323558163,86.07210486459233
631.4213098729228,86.69601559796939
632.4222873900294,86.64030845043767
633.423264907136,86.53681620205914
634.4242424242425,87.02493217564574
635.425219941349,87.76407172266862
636.4261974584556,87.97695324592655
637.4271749755621,87.36552686629628
638.4281524926687,88.20980569154015
639.4291300097752,88.47224762124395
640.4301075268818,88.82576010705856
641.4310850439883,89.48933089509423
642.4320625610949,89.86139847779793
643.4330400782014,90.61528657003015
644.434017595308,90.2871969888945
645.4349951124145,91.2320987133548
646.4359726295211,93.13937353876202
647.4369501466276,93.82019373858013
648.4379276637342,93.3827584878386
649.4389051808407,93.95709361400708
650.4398826979473,95.13018919819267
651.4408602150538,96.13173319145854
652.4418377321604,97.48106460048426
653.4428152492669,98.7687345108187
654.4437927663735,99.74722973939166
655.44477028348,100.6754637132917
656.4457478005866,101.83139448879875
657.4467253176931,103.26420299778006
658.4477028347997,105.5624994595575
659.4486803519062,107.91210343347574
660.4496578690128,110.80554993478177
661.4506353861193,113.9809776695232
662.4516129032259,116.72512038929172
663.4525904203324,121.61669048949453
664.453567937439,126.4227057545166
665.4545454545455,132.48803000641058
666.455522971652,139.20676636830194
667.4565004887586,147.32586666654504
668.4574780058651,157.97725360353522
669.4584555229717,170.08979865485483
670.4594330400782,182.47120997460837
671.4604105571848,199.04329880040345
672.4613880742913,217.78304682836233
673.4623655913979,236.87691849658717
674.4633431085044,255.76476895533898
675.464320625611,272.8191299389309
676.4652981427175,283.51238423592014
677.4662756598241,283.5701158815198
678.4672531769306,276.2228626181107
679.4682306940372,260.2244447769329
680.4692082111437,237.85757379536406
681.4701857282503,213.8828194004791
682.4711632453568,191.85405258380922
683.4721407624634,172.60292567792047
684.4731182795699,154.9651178941592
685.4740957966765,142.07364978301388
686.475073313783,131.8345933420559
687.4760508308896,122.85467109203503
688.4770283479961,115.32225038361601
689.4780058651027,109.81470212158295
690.4789833822092,106.156464557756
691.4799608993158,102.742066916053
692.4809384164223,98.6536164749588
693.4819159335289,96.45110232685768
694.4828934506354,94.60108476433963
695.483870967742,92.36785563181239
696.4848484848485,91.3430649663404
697.485826001955,89.95500391573644
698.4868035190616,88.12630002470857
699.4877810361681,87.47100529348323
700.4887585532747,87.09158650246323
701.4897360703812,86.27808786134828
702.4907135874878,85.45735755340303
703.4916911045943,84.97595265577061
704.4926686217009,84.58345960775833
705.4936461388074,84.02126880543597
706.494623655914,83.37061345042856
707.4956011730205,83.57273856319581
708.4965786901271,83.27955005161517
709.4975562072336,82.06620643581772
710.4985337243402,82.4794413733122
711.4995112414467,82.79886356674115
712.5004887585533,83.8622811025018
713.5014662756598,83.32869551530074
714.5024437927664,82.66720199768729
715.5034213098729,82.51643617020315
716.5043988269795,82.3482306103684
717.505376344086,82.55657925705859
718.5063538611926,83.6761567428668
719.5073313782991,81.46052278305872
720.5083088954057,81.89609371458934
721.5092864125122,82.228942339431
722.5102639296188,81.69534981731319
723.5112414467253,81.56056433868567
724.5122189638319,80.65461787378571
725.5131964809384,80.05606036041002
726.514173998045,81.12959505141744
727.5151515151515,80.2585571045867
728.516129032258,80.410925687349
729.5171065493646,81.08763124860423
730.5180840664711,81.15105417061665
731.5190615835777,81.21264994752313
732.5200391006842,80.07469468133164
733.5210166177908,81.24216249868533
734.5219941348973,80.84222923135039
735.5229716520039,80.88172417772886
736.5239491691104,80.72245712718633
737.524926686217,80.38166220351334
738.5259042033235,80.53777598921751
739.5268817204301,80.03985446742753
740.5278592375366,80.6859868522428
741.5288367546432,80.35211769702158
742.5298142717497,79.78798072469255
743.5307917888563,80.41852161184474
744.5317693059628,80.81441318819003
745.5327468230694,80.2230612173099
