Raman Shift,Intensity 
400,7.252666444
401,7.221365704
402,7.224426062
403,7.144379856
404,7.158883243
405,7.22160923
406,7.177343029
407,7.242777163
408,7.204798238
409,7.257033989
410,7.219413151
411,7.141757177
412,7.218264511
413,7.192560316
414,7.208762962
415,7.125498635
416,7.195303055
417,7.198767247
418,7.120116745
419,7.239153352
420,7.143569842
421,7.194027784
422,7.190576952
423,7.238231428
424,7.19804233
425,7.157558773
426,7.234321555
427,7.249063557
428,7.263119867
429,7.217578428
430,7.252079215
431,7.170378259
432,7.173585897
433,7.176306262
434,7.113971562
435,7.158855791
436,7.224107913
437,7.201795774
438,7.21719686
439,7.224421241
440,7.188343195
441,7.25159966
442,7.172649464
443,7.082898369
444,7.243743015
445,7.225450989
446,7.230197526
447,7.200759965
448,7.238997458
449,7.17325713
450,7.115033144
451,7.287959844
452,7.162361299
453,7.171285679
454,7.20937198
455,7.204708354
456,7.229686175
457,7.207416195
458,7.15323209
459,7.200457423
460,7.141086171
461,7.183770795
462,7.229449948
463,7.203270666
464,7.201125996
465,7.240553021
466,7.211632002
467,7.242827825
468,7.211906342
469,7.228554633
470,7.115691164
471,7.200837472
472,7.193453844
473,7.219959086
474,7.145551311
475,7.238051512
476,7.169873036
477,7.220576107
478,7.146393491
479,7.164462196
480,7.229183763
481,7.193572254
482,7.140650471
483,7.144645171
484,7.136080767
485,7.225152191
486,7.227721793
487,7.213963883
488,7.235792677
489,7.126335103
490,7.200626745
491,7.26487395
492,7.197394391
493,7.190704127
494,7.256807096
495,7.170569393
496,7.211785272
497,7.169860569
498,7.23384312
499,7.176426358
500,7.276625455
501,7.177449569
502,7.249480544
503,7.204168698
504,7.242743359
505,7.212642036
506,7.202421593
507,7.226538522
508,7.163070096
509,7.211262156
510,7.21355617
511,7.261138605
512,7.242309586
513,7.12406567
514,7.099687397
515,7.221196586
516,7.226362147
517,7.252297292
518,7.202838136
519,7.248193845
520,7.208456539
521,7.25090279
522,7.186998209
523,7.207842205
524,7.206626599
525,7.23984052
526,7.156465801
527,7.186659007
528,7.194456834
529,7.143928923
530,7.192043154
531,7.196963625
532,7.162566415
533,7.170060277
534,7.214125482
535,7.15384143
536,7.181459624
537,7.180597356
538,7.223286891
539,7.135981321
540,7.179776263
541,7.196463868
542,7.200761579
543,7.265859796
544,7.205198539
545,7.220436112
546,7.154387776
547,7.198606467
548,7.172856057
549,7.158275871
550,7.178607079
551,7.218686117
552,7.212904597
553,7.205522405
554,7.236094029
555,7.172515624
556,7.166742948
557,7.165496795
558,7.240564118
559,7.308101463
560,7.243697901
561,7.212939724
562,7.214380782
563,7.264155082
564,7.200016034
565,7.179516548
566,7.133988133
567,7.183383312
568,7.201461495
569,7.17404082
570,7.234456294
571,7.254858737
572,7.23842902
573,7.163291865
574,7.190844327
575,7.184270184
576,7.172789283
577,7.149848438
578,7.220297789
579,7.191682015
580,7.189594719
581,7.279795025
582,7.157669339
583,7.210930948
584,7.201644065
585,7.302872609
586,7.128023861
587,7.190660382
588,7.1303558
589,7.113868254
590,7.234408676
591,7.216174372
592,7.162969812
593,7.185997559
594,7.165645611
595,7.0797687
596,7.19980612
597,7.221107713
598,7.225871353
599,7.182726515
600,7.108002242
601,7.216606596
602,7.215271071
603,7.174600085
604,7.311118632
605,7.158334187
606,7.138522432
607,7.16370885
608,7.195039197
609,7.171117176
610,7.214574207
611,7.068535135
612,7.243985598
613,7.269939033
614,7.199898905
615,7.185984029
616,7.236724205
617,7.211692986
618,7.237635986
619,7.079796725
620,7.205435924
621,7.178538151
622,7.199496802
623,7.178016674
624,7.161450688
625,7.151289847
626,7.180852199
627,7.198032821
628,7.146650873
629,7.26265821
630,7.170629276
631,7.184911525
632,7.195492122
633,7.179424445
634,7.188997941
635,7.211277302
636,7.121004975
637,7.172756057
638,7.224749357
639,7.153162998
640,7.188899199
641,7.206939414
642,7.233450177
643,7.213805344
644,7.21981163
645,7.247003651
646,7.224117548
647,7.239452529
648,7.258820641
649,7.222425548
650,7.200055506
651,7.213183718
652,7.214608892
653,7.206651734
654,7.223966371
655,7.165610881
656,7.201542536
657,7.242923151
658,7.169059522
659,7.20492337
660,7.170230217
661,7.227990495
662,7.28284705
663,7.229573451
664,7.142819183
665,7.187278461
666,7.231590769
667,7.111439642
668,7.289018313
669,7.207385239
670,7.203178811
671,7.188211836
672,7.266293437
673,7.173154924
674,7.245910312
675,7.219962069
676,7.229339316
677,7.278244953
678,7.25874746
679,7.201543085
680,7.224327529
681,7.096918012
682,7.148760964
683,7.161439852
684,7.238392072
685,7.152315905
686,7.158617574
687,7.19608725
688,7.183086761
689,7.243343821
690,7.283942923
691,7.2197493
692,7.206250322
693,7.211058217
694,7.147475985
695,7.242934181
696,7.181350694
697,7.263978932
698,7.198058761
699,7.206002277
700,7.23092159
701,7.173536484
702,7.209052515
703,7.227066938
704,7.206351601
705,7.152834649
706,7.218591967
707,7.103992411
708,7.175488637
709,7.197153905
710,7.181598114
711,7.16144951
712,7.201611588
713,7.182802619
714,7.159124205
715,7.211884313
716,7.176084415
717,7.201125976
718,7.19322833
719,7.2151398
720,7.260803964
721,7.259671887
722,7.160936172
723,7.199743756
724,7.259819376
725,7.177072751
726,7.191556486
727,7.226337133
728,7.151742183
729,7.259766923
730,7.246817683
731,7.155629262
732,7.229697206
733,7.174146877
734,7.177765772
735,7.200306102
736,7.259146116
737,7.283287498
738,7.153677723
739,7.123181915
740,7.183531325
741,7.220201628
742,7.227151708
743,7.24503463
744,7.215911861
745,7.175681433
746,7.161067748
747,7.162314265
748,7.194093637
749,7.143441833
750,7.234823909
751,7.261326286
752,7.227966986
753,7.270060039
754,7.190112345
755,7.242382163
756,7.245412492
757,7.195932295
758,7.263915697
759,7.280894045
760,7.212886779
761,7.193197963
762,7.175270974
763,7.168016168
764,7.164959027
765,7.240043018
766,7.206747936
767,7.280453422
768,7.249591413
769,7.25099899
770,7.212231078
771,7.236866331
772,7.210990508
773,7.230352926
774,7.234240925
775,7.230318782
776,7.146181
777,7.209699675
778,7.167111816
779,7.177450211
780,7.188686449
781,7.111861323
782,7.216134492
783,7.109089137
784,7.217141398
785,7.155759806
786,7.1719744
787,7.235555587
788,7.184589645
789,7.227604285
790,7.212109504
791,7.160186514
792,7.161384801
793,7.220705374
794,7.231477469
795,7.215011084
796,7.194047821
797,7.212288639
798,7.166373755
799,7.164685194
800,7.175647664
801,7.145678349
802,7.174996491
803,7.237019437
804,7.117850818
805,7.247717249
806,7.20088217
807,7.170989364
808,7.234967067
809,7.194909821
810,7.120672874
811,7.191111676
812,7.256415879
813,7.255077492
814,7.201497983
815,7.232886902
816,7.16160534
817,7.163431403
818,7.241776483
819,7.252071003
820,7.245654132
821,7.277767781
822,7.124327341
823,7.215011339
824,7.173258533
825,7.221806827
826,7.229255963
827,7.261923881
828,7.144185161
829,7.205280526
830,7.139475772
831,7.261983479
832,7.211028522
833,7.238464387
834,7.157368731
835,7.213994957
836,7.228076503
837,7.230250499
838,7.263191832
839,7.209330363
840,7.253565979
841,7.208438089
842,7.170210769
843,7.229256999
844,7.191098229
845,7.252950964
846,7.255808673
847,7.204903562
848,7.191804414
849,7.217022422
850,7.224640199
851,7.088863571
852,7.196321677
853,7.23109601
854,7.174173958
855,7.144694659
856,7.163756994
857,7.199359388
858,7.177516424
859,7.21921716
860,7.22573943
861,7.18661646
862,7.189658596
863,7.148011161
864,7.205081034
865,7.13607985
866,7.204129008
867,7.21860684
868,7.145577331
869,7.184631688
870,7.170179906
871,7.178275235
872,7.196664547
873,7.244619572
874,7.172720487
875,7.174699926
876,7.153960811
877,7.241577232
878,7.168559753
879,7.244645629
880,7.206046643
881,7.24242631
882,7.171577328
883,7.231008713
884,7.192283857
885,7.257268234
886,7.187059958
887,7.284359605
888,7.213321468
889,7.190747041
890,7.196787183
891,7.131474606
892,7.203160131
893,7.199197316
894,7.210621357
895,7.188960733
896,7.182707719
897,7.203516601
898,7.168303092
899,7.189591002
900,7.17018836
901,7.179198419
902,7.219678635
903,7.277206604
904,7.167361958
905,7.215189848
906,7.260685202
907,7.174734561
908,7.229776631
909,7.241642772
910,7.264268612
911,7.199209225
912,7.185236393
913,7.12590151
914,7.144482823
915,7.224565942
916,7.267730465
917,7.148884312
918,7.133963196
919,7.135409036
920,7.249123266
921,7.162619311
922,7.199321116
923,7.165669273
924,7.19493391
925,7.106364938
926,7.2611351
927,7.266545185
928,7.17300905
929,7.240661639
930,7.207040837
931,7.230057373
932,7.165936512
933,7.234992509
934,7.192227159
935,7.263408132
936,7.251450611
937,7.176402728
938,7.148447603
939,7.147208651
940,7.265158975
941,7.208292514
942,7.205151267
943,7.149781201
944,7.212342549
945,7.264968528
946,7.175549107
947,7.155310147
948,7.179641429
949,7.190130542
950,7.241675205
951,7.320642089
952,7.212599341
953,7.213303676
954,7.216118233
955,7.218696806
956,7.185133935
957,7.190918139
958,7.259548325
959,7.192382152
960,7.170566455
961,7.222641579
962,7.230193793
963,7.12934465
964,7.188522518
965,7.228682214
966,7.205142916
967,7.216838283
968,7.243713306
969,7.155925068
970,7.163351019
971,7.22747881
972,7.24977231
973,7.160573892
974,7.181457436
975,7.237656388
976,7.193971828
977,7.147813991
978,7.194653541
979,7.209349575
980,7.202760574
981,7.172862155
982,7.179504564
983,7.221266823
984,7.224257042
985,7.157397544
986,7.12861116
987,7.212528776
988,7.212818069
989,7.255098469
990,7.223252012
991,7.186452256
992,7.162792664
993,7.137241941
994,7.269536795
995,7.210344779
996,7.257878586
997,7.254520157
998,7.203709696
999,7.19947073
1000,7.208569576
1001,7.185545519
1002,7.228464297
1003,7.261466642
1004,7.197724354
1005,7.180865733
1006,7.173867028
1007,7.227023773
1008,7.213395784
1009,7.253394261
1010,7.26350711
1011,7.115002102
1012,7.181878112
1013,7.158588717
1014,7.195449202
1015,7.206886978
1016,7.281111246
1017,7.173934353
1018,7.138889627
1019,7.248698313
1020,7.221417901
1021,7.236936038
1022,7.111570759
1023,7.217350052
1024,7.218118155
1025,7.139493199
1026,7.23000864
1027,7.229668453
1028,7.264684185
1029,7.151005774
1030,7.226609337
1031,7.232034022
1032,7.141886557
1033,7.16884602
1034,7.147566857
1035,7.206148529
1036,7.236704072
1037,7.227534084
1038,7.214490703
1039,7.210954762
1040,7.081303904
1041,7.21340756
1042,7.255430531
1043,7.154823482
1044,7.20081013
1045,7.2505219
1046,7.20913459
1047,7.123206186
1048,7.221147495
1049,7.236091488
1050,7.183259705
1051,7.226719443
1052,7.196237846
1053,7.190595061
1054,7.227020158
1055,7.231424871
1056,7.182128255
1057,7.161928927
1058,7.200243989
1059,7.169608173
1060,7.200020107
1061,7.135061054
1062,7.237114204
1063,7.202089747
1064,7.175677632
1065,7.185212128
1066,7.137650114
1067,7.262957057
1068,7.171203166
1069,7.198662447
1070,7.217152037
1071,7.278404309
1072,7.183801029
1073,7.23509665
1074,7.248840603
1075,7.209088157
1076,7.201990218
1077,7.197565721
1078,7.205802024
1079,7.15873127
1080,7.244604792
1081,7.144619917
1082,7.187472365
1083,7.219238139
1084,7.222040846
1085,7.217857121
1086,7.233962256
1087,7.187173149
1088,7.287060405
1089,7.26543034
1090,7.203519078
1091,7.181065301
1092,7.209761744
1093,7.195416974
1094,7.217900903
1095,7.120844843
1096,7.186664411
1097,7.19831329
1098,7.082561204
1099,7.076342528
1100,7.217105004
1101,7.178680303
1102,7.2039378
1103,7.239562185
1104,7.140216672
1105,7.178940638
1106,7.120956147
1107,7.192927528
1108,7.181159761
1109,7.251102075
1110,7.18671885
1111,7.161400607
1112,7.243404586
1113,7.171184052
1114,7.20161866
1115,7.224832151
1116,7.22470438
1117,7.161886169
1118,7.248707243
1119,7.268639662
1120,7.23400772
1121,7.187068561
1122,7.279856342
1123,7.194767979
1124,7.246730707
1125,7.165697912
1126,7.199656617
1127,7.215576747
1128,7.211836271
1129,7.267378048
1130,7.193129546
1131,7.229901837
1132,7.173060009
1133,7.150638083
1134,7.197315563
1135,7.212146027
1136,7.203619914
1137,7.234066399
1138,7.152219967
1139,7.11948595
1140,7.234708417
1141,7.21427507
1142,7.129926081
1143,7.180065292
1144,7.132827286
1145,7.235868296
1146,7.199183476
1147,7.155905938
1148,7.274167538
1149,7.197312148
1150,7.193655615
1151,7.198809927
1152,7.208064164
1153,7.193033882
1154,7.265938708
1155,7.152083797
1156,7.156896101
1157,7.22001286
1158,7.138120251
1159,7.209001036
1160,7.246111041
1161,7.2145085
1162,7.190160175
1163,7.251299286
1164,7.17495949
1165,7.137944762
1166,7.153669684
1167,7.234300182
1168,7.124246112
1169,7.23033476
1170,7.208916011
1171,7.226033463
1172,7.164404641
1173,7.144193169
1174,7.161298352
1175,7.168506279
1176,7.195902814
1177,7.174005886
1178,7.187777911
1179,7.184216633
1180,7.260825118
1181,7.193949236
1182,7.210430795
1183,7.094577503
1184,7.174020733
1185,7.116446669
1186,7.149028839
1187,7.206263276
1188,7.197142828
1189,7.156063041
1190,7.240299577
1191,7.185306133
1192,7.13821913
1193,7.161864248
1194,7.281373102
1195,7.188342139
1196,7.225954009
1197,7.222644618
1198,7.15209513
1199,7.218727505
1200,7.221318963
1201,7.161475993
1202,7.188706451
1203,7.18155882
1204,7.255209608
1205,7.2181595
1206,7.220618331
1207,7.187148327
1208,7.212835913
1209,7.234096392
1210,7.208518246
1211,7.235417138
1212,7.161123437
1213,7.199027779
1214,7.102017941
1215,7.091787434
1216,7.202573479
1217,7.134054017
1218,7.211146607
1219,7.188572494
1220,7.201214977
1221,7.211020191
1222,7.187232274
1223,7.170104822
1224,7.24264097
1225,7.162979267
1226,7.154231649
1227,7.165297958
1228,7.186028371
1229,7.187981569
1230,7.21392646
1231,7.237663293
1232,7.20715916
1233,7.17977106
1234,7.176540778
1235,7.133531179
1236,7.180474231
1237,7.133912928
1238,7.19365817
1239,7.265250466
1240,7.170371379
1241,7.180350002
1242,7.233420427
1243,7.184825907
1244,7.220816823
1245,7.223900634
1246,7.169870288
1247,7.136886749
1248,7.190947991
1249,7.159956526
1250,7.214868438
1251,7.21321889
1252,7.17985181
1253,7.216107603
1254,7.217797401
1255,7.144967645
1256,7.189438171
1257,7.164447886
1258,7.19109701
1259,7.147371265
1260,7.194420846
1261,7.14489696
1262,7.213482471
1263,7.213806284
1264,7.23954004
1265,7.21996111
1266,7.208752286
1267,7.17835971
1268,7.198832059
1269,7.206675252
1270,7.200260122
1271,7.188750965
1272,7.140857819
1273,7.20480232
1274,7.243087974
1275,7.225881557
1276,7.259603103
1277,7.259623674
1278,7.216823922
1279,7.206531958
1280,7.194158313
1281,7.171425842
1282,7.26207086
1283,7.188123233
1284,7.233460014
1285,7.209569035
1286,7.197677777
1287,7.166151395
1288,7.218107516
1289,7.128593605
1290,7.206637711
1291,7.196218441
1292,7.181950703
1293,7.199458615
1294,7.150518926
1295,7.170206671
1296,7.15375873
1297,7.190931123
1298,7.243766543
1299,7.199728317
1300,7.259225404
1301,7.243928015
1302,7.152055612
1303,7.135731689
1304,7.276167204
1305,7.212109184
1306,7.113337816
1307,7.190692991
1308,7.217791543
1309,7.174920152
1310,7.207365769
1311,7.155964007
1312,7.185208891
1313,7.209188794
1314,7.19186461
1315,7.230882132
1316,7.139608222
1317,7.191616242
1318,7.229246173
1319,7.297756774
1320,7.208903647
1321,7.168523253
1322,7.210549241
1323,7.256996367
1324,7.279586579
1325,7.246853224
1326,7.200457949
1327,7.169326265
1328,7.143238839
1329,7.152422439
1330,7.20182501
1331,7.245940374
1332,7.175249856
1333,7.140639826
1334,7.218569789
1335,7.160567772
1336,7.22696276
1337,7.261625567
1338,7.210634528
1339,7.1620732
1340,7.101762901
1341,7.232653706
1342,7.216050432
1343,7.183528237
1344,7.128133989
1345,7.240518058
1346,7.236965481
1347,7.187007529
1348,7.21403287
1349,7.123094153
1350,7.170431814
1351,7.165273327
1352,7.213345377
1353,7.301473958
1354,7.182482567
1355,7.260426695
1356,7.145782159
1357,7.198277507
1358,7.101884177
1359,7.15859373
1360,7.267986753
1361,7.182001456
1362,7.210127501
1363,7.170281949
1364,7.231612226
1365,7.208435097
1366,7.248518276
1367,7.167144276
1368,7.184433137
1369,7.219759388
1370,7.154465872
1371,7.181678105
1372,7.190239564
1373,7.219199924
1374,7.170393354
1375,7.178073165
1376,7.228367717
1377,7.260757162
1378,7.203366001
1379,7.171153023
1380,7.222341943
1381,7.154184142
1382,7.221400237
1383,7.123886218
1384,7.250664868
1385,7.186543314
1386,7.250277814
1387,7.213981272
1388,7.178083818
1389,7.176027054
1390,7.203910106
1391,7.180765466
1392,7.316323596
1393,7.184989668
1394,7.160548711
1395,7.081728347
1396,7.216874254
1397,7.1442165
1398,7.160894432
1399,7.240329236
1400,7.1553727
1401,7.24042915
1402,7.164534773
1403,7.208402713
1404,7.180713633
1405,7.180804237
1406,7.232028027
1407,7.220588127
1408,7.22426753
1409,7.171683624
1410,7.159428094
1411,7.191560958
1412,7.198966355
1413,7.191319766
1414,7.206251397
1415,7.278143814
1416,7.166074734
1417,7.191146722
1418,7.206237175
1419,7.158768645
1420,7.250396239
1421,7.157464664
1422,7.142537588
1423,7.171235038
1424,7.257429098
1425,7.207762496
1426,7.195587075
1427,7.185380164
1428,7.144183934
1429,7.250148831
1430,7.175314773
1431,7.134780313
1432,7.121893288
1433,7.217078579
1434,7.166775657
1435,7.18339506
1436,7.243707612
1437,7.2271452
1438,7.182494812
1439,7.199433001
1440,7.227603645
1441,7.167598431
1442,7.20742237
1443,7.239640901
1444,7.279254779
1445,7.165190935
1446,7.169592079
1447,7.186836995
1448,7.128764501
1449,7.237562072
1450,7.156121066
1451,7.118306235
1452,7.148253184
1453,7.180359886
1454,7.198911622
1455,7.224549069
1456,7.184569728
1457,7.236605655
1458,7.171458356
1459,7.160164074
1460,7.191764632
1461,7.057621063
1462,7.224546553
1463,7.22587767
1464,7.184606838
1465,7.237348516
1466,7.205387472
1467,7.228140188
1468,7.14286789
1469,7.194419328
1470,7.111724397
1471,7.253069215
1472,7.222111453
1473,7.174217123
1474,7.22182881
1475,7.178404708
1476,7.178654075
1477,7.116606784
1478,7.133174977
1479,7.184823295
1480,7.18752163
1481,7.335096134
1482,7.159267237
1483,7.172070783
1484,7.181571698
1485,7.177762479
1486,7.216552762
1487,7.201829761
1488,7.143116879
1489,7.126114575
1490,7.223280857
1491,7.17216139
1492,7.209962648
1493,7.231694021
1494,7.263695197
1495,7.247795596
1496,7.20326715
1497,7.287656924
1498,7.271344407
1499,7.166744678
1500,7.172911964
1501,7.233735765
1502,7.152819623
1503,7.217253853
1504,7.200274332
1505,7.205896434
1506,7.186294406
1507,7.204147658
1508,7.228985219
1509,7.194420815
1510,7.103685902
1511,7.232539066
1512,7.20454689
1513,7.173279473
1514,7.221075835
1515,7.25074773
1516,7.23258111
1517,7.185991793
1518,7.183561471
1519,7.202331647
1520,7.190302998
1521,7.212300116
1522,7.198144335
1523,7.171692479
1524,7.178491251
1525,7.233119792
1526,7.25399472
1527,7.14989571
1528,7.2590364
1529,7.195645728
1530,7.235905506
1531,7.189300367
1532,7.166827437
1533,7.157152404
1534,7.197401699
1535,7.157567745
1536,7.099815557
1537,7.269480078
1538,7.260597203
1539,7.265650282
1540,7.107931188
1541,7.230433526
1542,7.188941459
1543,7.200270351
1544,7.191588878
1545,7.176426506
1546,7.204282649
1547,7.227664712
1548,7.250373409
1549,7.207286058
1550,7.195367405
1551,7.191828215
1552,7.215227997
1553,7.201113618
1554,7.109939396
1555,7.234749459
1556,7.157983109
1557,7.188322157
1558,7.188416441
1559,7.215263369
1560,7.192247894
1561,7.2323632
1562,7.233647135
1563,7.225171458
1564,7.217699155
1565,7.147427518
1566,7.173950011
1567,7.123183922
1568,7.163224015
1569,7.214463689
1570,7.099094079
1571,7.224365027
1572,7.214270921
1573,7.26945085
1574,7.17314995
1575,7.170393433
1576,7.155905676
1577,7.206940577
1578,7.163619236
1579,7.192126959
1580,7.173499375
1581,7.266641107
1582,7.146417162
1583,7.211953463
1584,7.15491801
1585,7.190862917
1586,7.254077065
1587,7.149506903
1588,7.246634272
1589,7.284890676
1590,7.174379832
1591,7.134170936
1592,7.1849632
1593,7.218031038
1594,7.205131174
1595,7.143745759
1596,7.1641813
1597,7.187400161
1598,7.151621424
1599,7.144518149
1600,7.171778241
1601,7.18279479
1602,7.259584083
1603,7.162857597
1604,7.175708487
1605,7.207363767
1606,7.240781735
1607,7.103249211
1608,7.240048861
1609,7.166137172
1610,7.222462571
1611,7.213106738
1612,7.192295238
1613,7.172521154
1614,7.26562427
1615,7.183594643
1616,7.192090521
1617,7.209546919
1618,7.234027689
1619,7.156949996
1620,7.185985648
1621,7.134678212
1622,7.277199548
1623,7.13267101
1624,7.236901042
1625,7.171850158
1626,7.187450558
1627,7.145984368
1628,7.169669664
1629,7.1801486
1630,7.247371763
1631,7.127595219
1632,7.144245098
1633,7.159972034
1634,7.183027675
1635,7.199363359
1636,7.135534815
1637,7.126133064
1638,7.229693513
1639,7.192821148
1640,7.164045349
1641,7.184509062
1642,7.227689093
1643,7.17492717
1644,7.223705068
1645,7.14705617
1646,7.143735882
1647,7.216589869
1648,7.191149934
1649,7.248441323
1650,7.213419272
1651,7.179619868
1652,7.210772224
1653,7.186487553
1654,7.172089245
1655,7.229196891
1656,7.195201407
1657,7.207048275
1658,7.208531919
1659,7.173115561
1660,7.212786698
1661,7.148921808
1662,7.153096585
1663,7.265400997
1664,7.188475625
1665,7.203236167
1666,7.092643207
1667,7.203945896
1668,7.237203679
1669,7.170154793
1670,7.271767439
1671,7.169165587
1672,7.294469086
1673,7.255790592
1674,7.277264369
1675,7.207358096
1676,7.180131205
1677,7.19167562
1678,7.205487044
1679,7.172109584
1680,7.241051583
1681,7.16803039
1682,7.155795799
1683,7.227780768
1684,7.206887613
1685,7.154410362
1686,7.194256165
1687,7.131178209
1688,7.203255876
1689,7.204641411
1690,7.197927533
1691,7.27940256
1692,7.225650519
1693,7.18953945
1694,7.185651283
1695,7.179096437
1696,7.217584049
1697,7.20482035
1698,7.254457847
1699,7.212144885
1700,7.294513502
1701,7.134337839
1702,7.231669222
1703,7.255812675
1704,7.22425159
1705,7.251224101
1706,7.192547247
1707,7.164500069
1708,7.234878775
1709,7.136982158
1710,7.197690587
1711,7.140610705
1712,7.16041323
1713,7.218401328
1714,7.197345614
1715,7.172815938
1716,7.206863064
1717,7.192226178
1718,7.236619415
1719,7.174727625
1720,7.200853501
1721,7.247554733
1722,7.20009416
1723,7.231961612
1724,7.245338897
1725,7.219484428
1726,7.152252659
1727,7.183010326
1728,7.239329844
1729,7.203898449
1730,7.222260139
1731,7.25177335
1732,7.181559227
1733,7.145888617
1734,7.198991108
1735,7.204081174
1736,7.126697937
1737,7.165113719
1738,7.208056661
1739,7.150444353
1740,7.136873955
1741,7.183258378
1742,7.178641951
1743,7.202416857
1744,7.213591959
1745,7.189874404
1746,7.192767226
1747,7.250063874
1748,7.20806973
1749,7.200983297
1750,7.211603679
1751,7.124076963
1752,7.283355592
1753,7.198288209
1754,7.22861203
1755,7.165189214
1756,7.224807453
1757,7.215992287
1758,7.257039345
1759,7.205395106
1760,7.140484819
1761,7.215997929
1762,7.181524784
1763,7.187006787
1764,7.196757132
1765,7.260581567
1766,7.245324453
1767,7.160464625
1768,7.193067832
1769,7.191970527
1770,7.149147372
1771,7.147127529
1772,7.193992522
1773,7.180929366
1774,7.173445255
1775,7.212324917
1776,7.172547862
1777,7.228055593
1778,7.244662126
1779,7.16502499
1780,7.194955578
1781,7.213248767
1782,7.15656073
1783,7.191527611
1784,7.177454916
1785,7.139485889
1786,7.18943377
1787,7.216472316
1788,7.188160477
1789,7.181986559
1790,7.134359019
1791,7.156367179
1792,7.1870543
1793,7.242629868
1794,7.150322713
1795,7.254831105
1796,7.212125538
1797,7.205127266
1798,7.223725712
1799,7.228003851
1800,7.19224551
1801,7.267352186
1802,7.180206959
1803,7.273307416
1804,7.173844481
1805,7.168821411
1806,7.150327282
1807,7.166671893
1808,7.234900165
1809,7.207235282
1810,7.152740449
1811,7.235088118
1812,7.199214325
1813,7.112042154
1814,7.192211934
1815,7.132701309
1816,7.188647114
1817,7.258717716
1818,7.305765504
1819,7.15854214
1820,7.189238088
1821,7.20615187
1822,7.149882062
1823,7.241667738
1824,7.284613221
1825,7.20537066
1826,7.168870553
1827,7.187950553
1828,7.165169277
1829,7.199926937
1830,7.248137371
1831,7.230748778
1832,7.220348669
1833,7.131938866
1834,7.178900657
1835,7.229994441
1836,7.177771552
1837,7.181739645
1838,7.238656061
1839,7.249247478
1840,7.313832301
1841,7.194588921
1842,7.162458557
1843,7.1430877
1844,7.248282881
1845,7.23186274
1846,7.25059989
1847,7.248485293
1848,7.178402473
1849,7.228175128
1850,7.217477712
1851,7.168559425
1852,7.111811412
1853,7.114472929
1854,7.230643932
1855,7.252053056
1856,7.208181355
1857,7.181786315
1858,7.194020378
1859,7.15110735
1860,7.226570048
1861,7.195045561
1862,7.225839229
1863,7.192583795
1864,7.213272545
1865,7.181508011
1866,7.318490415
1867,7.208974431
1868,7.134048967
1869,7.258513506
1870,7.202552239
1871,7.244237879
1872,7.219368978
1873,7.213488981
1874,7.191096505
1875,7.246287806
1876,7.168653856
1877,7.146482856
1878,7.156101795
1879,7.222215771
1880,7.177041962
1881,7.152399129
1882,7.155247003
1883,7.168189838
1884,7.19758282
1885,7.258124597
1886,7.183144458
1887,7.154922389
1888,7.21918004
1889,7.23231432
1890,7.189139829
1891,7.242996955
1892,7.206937239
1893,7.202325391
1894,7.181546766
1895,7.216187828
1896,7.182140005
1897,7.20081021
1898,7.212809625
1899,7.200247791
1900,7.182830689
1901,7.170380005
1902,7.135986413
1903,7.122445656
1904,7.166186746
1905,7.172201557
1906,7.126819509
1907,7.241546419
1908,7.232178617
1909,7.216772096
1910,7.185101175
1911,7.146736821
1912,7.163902789
1913,7.151072296
1914,7.243306938
1915,7.17036556
1916,7.236883028
1917,7.214762862
1918,7.271378273
1919,7.167381672
1920,7.213918975
1921,7.255615799
1922,7.280720345
1923,7.176332978
1924,7.212670622
1925,7.198663166
1926,7.182688052
1927,7.201759579
1928,7.250059287
1929,7.231525942
1930,7.166166382
1931,7.177942776
1932,7.247176169
1933,7.151323278
1934,7.224000242
1935,7.127924616
1936,7.206315296
1937,7.177183898
1938,7.235393976
1939,7.17091136
1940,7.175895644
1941,7.185854888
1942,7.19143496
1943,7.160120722
1944,7.152685366
1945,7.237353822
1946,7.161461281
1947,7.157738367
1948,7.178443327
1949,7.181535362
1950,7.230643514
1951,7.198528091
1952,7.200816493
1953,7.155043253
1954,7.189839679
1955,7.139043406
1956,7.235454422
1957,7.158267854
1958,7.233375062
1959,7.190210695
1960,7.278121312
1961,7.205238444
1962,7.205338558
1963,7.205706259
1964,7.170124704
1965,7.214148153
1966,7.25599228
1967,7.154992882
1968,7.220685809
1969,7.215926404
1970,7.194951441
1971,7.255926038
1972,7.147096752
1973,7.247837244
1974,7.234626933
1975,7.206287943
1976,7.130690056
1977,7.179764125
1978,7.165138589
1979,7.22878487
1980,7.251243699
1981,7.285083586
1982,7.189221271
1983,7.183462733
1984,7.205703248
1985,7.190562331
1986,7.18369064
1987,7.238037979
1988,7.188916697
1989,7.232962643
1990,7.235148423
1991,7.18372276
1992,7.167822482
1993,7.255254719
1994,7.211398792
1995,7.232431122
1996,7.231735166
1997,7.181493001
1998,7.181518364
1999,7.13981052
2000,7.217847241
2001,7.196621757
2002,7.201188718
2003,7.250470241
2004,7.272281702
2005,7.198216018
2006,7.175447302
2007,7.220883466
2008,7.246991402
2009,7.171893658
2010,7.196195483
2011,7.17974314
2012,7.219244536
2013,7.277119103
2014,7.162750313
2015,7.187116502
2016,7.218401536
2017,7.205658999
2018,7.174456012
2019,7.144641461
2020,7.240458044
2021,7.177040858
2022,7.24283366
2023,7.230136062
2024,7.213524509
2025,7.196100259
2026,7.173162232
2027,7.231002217
2028,7.22703682
2029,7.218638237
2030,7.238008627
2031,7.166931396
2032,7.177706011
2033,7.185145692
2034,7.156072513
2035,7.272251469
2036,7.244352926
2037,7.16012801
2038,7.148638095
2039,7.105031176
2040,7.201466094
2041,7.226892095
2042,7.238049671
2043,7.23211587
2044,7.155468072
2045,7.292977064
2046,7.147384617
2047,7.152692612
2048,7.252231759
2049,7.201574758
2050,7.133733427
2051,7.177227645
2052,7.228245631
2053,7.127628955
2054,7.179456154
2055,7.244482369
2056,7.20470368
2057,7.161508359
2058,7.214523089
2059,7.221986696
2060,7.150549023
2061,7.188401295
2062,7.263796819
2063,7.119961718
2064,7.170161766
2065,7.223280258
2066,7.228095176
2067,7.206803569
2068,7.265140394
2069,7.267515018
2070,7.195998807
2071,7.174714009
2072,7.206749218
2073,7.183151162
2074,7.246518007
2075,7.185324298
2076,7.215708188
2077,7.156612598
2078,7.196333694
2079,7.151295804
2080,7.18707915
2081,7.201421242
2082,7.23173614
2083,7.171108128
2084,7.277351658
2085,7.088623526
2086,7.210798649
2087,7.229559621
2088,7.144509675
2089,7.146386417
2090,7.198005843
2091,7.218967482
2092,7.166965863
2093,7.240312904
2094,7.242483343
2095,7.166440054
2096,7.18810253
2097,7.124526853
2098,7.183736155
2099,7.204573169
2100,7.151155849
2101,7.204247523
2102,7.244951716
2103,7.181107946
2104,7.128920321
2105,7.138732726
2106,7.124574563
2107,7.228480105
2108,7.260262994
2109,7.245606422
2110,7.211015052
2111,7.228170874
2112,7.283215977
2113,7.168912325
2114,7.22165974
2115,7.214726872
2116,7.102503046
2117,7.1736336
2118,7.251738911
2119,7.240342761
2120,7.170405724
2121,7.271325341
2122,7.18013742
2123,7.16433337
2124,7.183813835
2125,7.21192763
2126,7.257997595
2127,7.15636986
2128,7.071830334
2129,7.179903665
2130,7.21870703
2131,7.232730636
2132,7.21871609
2133,7.157968176
2134,7.273185424
2135,7.18172611
2136,7.26612777
2137,7.184125226
2138,7.163271997
2139,7.259401971
2140,7.214136062
2141,7.178857195
2142,7.227719175
2143,7.228340179
2144,7.142193806
2145,7.172085489
2146,7.257654195
2147,7.213186287
2148,7.146403688
2149,7.217011864
2150,7.162891276
2151,7.216470626
2152,7.180488539
2153,7.212828691
2154,7.21128492
2155,7.240087628
2156,7.141546793
2157,7.182150049
2158,7.20379941
2159,7.157365342
2160,7.177360439
2161,7.281979553
2162,7.173820144
2163,7.245913527
2164,7.168961949
2165,7.221853751
2166,7.225842919
2167,7.2370827
2168,7.146919574
2169,7.186206582
2170,7.191219807
2171,7.141988365
2172,7.210579486
2173,7.249649211
2174,7.18249824
2175,7.17657217
2176,7.195780722
2177,7.247119299
2178,7.219414647
2179,7.224889245
2180,7.149140322
2181,7.18170332
2182,7.233153641
2183,7.196803146
2184,7.209350953
2185,7.163125579
2186,7.205310445
2187,7.183452546
2188,7.18903031
2189,7.159483264
2190,7.102319245
2191,7.19956942
2192,7.193301675
2193,7.254524531
2194,7.220607646
2195,7.250724748
2196,7.216923756
2197,7.175482727
2198,7.176605529
2199,7.194852162
2200,7.24210095
2201,7.177121729
2202,7.180819297
2203,7.295892887
2204,7.163399757
2205,7.222156905
2206,7.212411831
2207,7.229438222
2208,7.232895765
2209,7.225094148
2210,7.192578195
2211,7.243178757
2212,7.201456942
2213,7.15575486
2214,7.237471029
2215,7.164850778
2216,7.194801787
2217,7.221380447
2218,7.235387889
2219,7.192528092
2220,7.195152463
2221,7.193613065
2222,7.198332443
2223,7.154407901
2224,7.151818057
2225,7.199289615
2226,7.184243504
2227,7.184381425
2228,7.229306709
2229,7.233091858
2230,7.217880952
2231,7.194399121
2232,7.233957838
2233,7.250610965
2234,7.22818028
2235,7.160124941
2236,7.210584534
2237,7.195052323
2238,7.242828913
2239,7.230876811
2240,7.213275089
2241,7.190324694
2242,7.141357085
2243,7.232552017
2244,7.236699332
2245,7.223276828
2246,7.215645269
2247,7.210975345
2248,7.22906027
2249,7.160475355
2250,7.235472958
2251,7.178957095
2252,7.201776342
2253,7.232272465
2254,7.212007917
2255,7.224988243
2256,7.212627442
2257,7.164680134
2258,7.152039834
2259,7.242098839
2260,7.219705572
2261,7.165621598
2262,7.200978781
2263,7.240463835
2264,7.258316544
2265,7.194326284
2266,7.211834288
2267,7.195813947
2268,7.217147763
2269,7.208847639
2270,7.109939587
2271,7.141465086
2272,7.179610405
2273,7.19319384
2274,7.205668084
2275,7.206246161
2276,7.212869363
2277,7.172817576
2278,7.244486217
2279,7.235609189
2280,7.211588716
2281,7.249274286
2282,7.157259338
2283,7.233227107
2284,7.191344157
2285,7.176349947
2286,7.214467664
2287,7.216786234
2288,7.268383329
2289,7.23039439
2290,7.245260919
2291,7.286606538
2292,7.206742408
2293,7.233464779
2294,7.230537762
2295,7.172220955
2296,7.129704572
2297,7.13957583
2298,7.196030054
2299,7.245512477
2300,7.208561022
2301,7.247290825
2302,7.260232898
2303,7.293292646
2304,7.256328067
2305,7.219979207
2306,7.20165517
2307,7.177570991
2308,7.244013935
2309,7.233905007
2310,7.233935363
2311,7.255451837
2312,7.178850563
2313,7.12471863
2314,7.229077199
2315,7.180941248
2316,7.225606265
2317,7.181065509
2318,7.177788506
2319,7.161945445
2320,7.161465882
2321,7.157029917
2322,7.105794362
2323,7.134482115
2324,7.1835034
2325,7.199970356
2326,7.207010476
2327,7.150706457
2328,7.19427527
2329,7.177231099
2330,7.180911833
2331,7.175992911
2332,7.165090448
2333,7.182041043
2334,7.182023789
2335,7.221720246
2336,7.207366388
2337,7.184395491
2338,7.2147309
2339,7.203191614
2340,7.218711941
2341,7.214326451
2342,7.197471555
2343,7.204276725
2344,7.160767458
2345,7.154203416
2346,7.246852195
2347,7.180434659
2348,7.131551454
2349,7.131894892
2350,7.276788729
2351,7.109569924
2352,7.233297069
2353,7.164025616
2354,7.167264956
2355,7.16867934
2356,7.157467401
2357,7.218639646
2358,7.204451045
2359,7.207792321
2360,7.144893543
2361,7.159953142
2362,7.196365279
2363,7.207789872
2364,7.251727951
2365,7.162253878
2366,7.194744339
2367,7.188146048
2368,7.237430353
2369,7.174840685
2370,7.214621457
2371,7.191854023
2372,7.179813579
2373,7.253740635
2374,7.220202845
2375,7.192476196
2376,7.219644625
2377,7.180349944
2378,7.275492536
2379,7.217316089
2380,7.212219846
2381,7.178009171
2382,7.221474234
2383,7.261013344
2384,7.102479555
2385,7.228639606
2386,7.186002337
2387,7.181799488
2388,7.270227388
2389,7.228957073
2390,7.154604022
2391,7.196377362
2392,7.162997551
2393,7.222023855
2394,7.248182834
2395,7.178844211
2396,7.299834729
2397,7.231575098
2398,7.227523817
2399,7.202332849
2400,7.232457489
2401,7.168234973
2402,7.200752416
2403,7.166842598
2404,7.259795256
2405,7.234613797
2406,7.182862446
2407,7.166905222
2408,7.171494768
2409,7.20533965
2410,7.154039349
2411,7.151323461
2412,7.15637723
2413,7.176307276
2414,7.217407612
2415,7.223141541
2416,7.188549741
2417,7.220250106
2418,7.198688881
2419,7.236244252
2420,7.216827036
2421,7.215201962
2422,7.199867701
2423,7.220109483
2424,7.136138447
2425,7.158982301
2426,7.125019211
2427,7.152523461
2428,7.173670517
2429,7.175247256
2430,7.211004757
2431,7.187199735
2432,7.177653556
2433,7.098331306
2434,7.230671526
2435,7.143005077
2436,7.191429553
2437,7.166355415
2438,7.175981279
2439,7.134899183
2440,7.227054135
2441,7.248899798
2442,7.191378116
2443,7.196291355
2444,7.21354247
2445,7.192038172
2446,7.147339127
2447,7.123576674
2448,7.186556272
2449,7.231206499
2450,7.188835112
2451,7.161071478
2452,7.278042353
2453,7.168743024
2454,7.178441604
2455,7.233820278
2456,7.214459255
2457,7.170180074
2458,7.208205975
2459,7.204925754
2460,7.19949303
2461,7.201571215
2462,7.202419283
2463,7.152376656
2464,7.23456121
2465,7.208407366
2466,7.23909115
2467,7.222770707
2468,7.217843054
2469,7.212212362
2470,7.183865723
2471,7.125090001
2472,7.261578307
2473,7.097225908
2474,7.224690696
2475,7.185278551
2476,7.220023226
2477,7.232132084
2478,7.142891707
2479,7.194375548
2480,7.202065958
2481,7.243730263
2482,7.224432216
2483,7.199831154
2484,7.14453091
2485,7.184302395
2486,7.237416829
2487,7.24048624
2488,7.136896069
2489,7.266981001
2490,7.207306162
2491,7.195319366
2492,7.194446462
2493,7.207664815
2494,7.113502942
2495,7.188925794
2496,7.199823279
2497,7.233400511
2498,7.228264232
2499,7.265785215
2500,7.280875654
2501,7.192108234
2502,7.205822296
2503,7.186134995
2504,7.143523386
2505,7.258375203
2506,7.217051125
2507,7.167763992
2508,7.213057003
2509,7.249181366
2510,7.1835553
2511,7.17933031
2512,7.139469147
2513,7.206989756
2514,7.283719975
2515,7.12186028
2516,7.134546348
2517,7.215014577
2518,7.244765743
2519,7.203067367
2520,7.186415352
2521,7.161803424
2522,7.232176538
2523,7.163980164
2524,7.202777229
2525,7.292964293
2526,7.276263117
2527,7.173221582
2528,7.171192937
2529,7.221916761
2530,7.216512324
2531,7.24663028
2532,7.202676144
2533,7.243488356
2534,7.171390327
2535,7.176064163
2536,7.224496171
2537,7.243990818
2538,7.229838581
2539,7.211126569
2540,7.26643659
2541,7.213353017
2542,7.219788375
2543,7.2155175
2544,7.145839438
2545,7.195186614
2546,7.149453785
2547,7.169159392
2548,7.233533115
2549,7.199631249
2550,7.252520484
2551,7.202808015
2552,7.178205297
2553,7.211714666
2554,7.158843701
2555,7.242145113
2556,7.161900966
2557,7.162964908
2558,7.192468104
2559,7.186972516
2560,7.258246062
2561,7.189175232
2562,7.226901542
2563,7.24944416
2564,7.163335799
2565,7.193000745
2566,7.211192939
2567,7.261802175
2568,7.129438967
2569,7.181918119
2570,7.186368645
2571,7.288963077
2572,7.259690604
2573,7.156681315
2574,7.17843188
2575,7.138623633
2576,7.173528238
2577,7.283218834
2578,7.210045432
2579,7.211464115
2580,7.139732469
2581,7.258036313
2582,7.199081169
2583,7.253076723
2584,7.253405794
2585,7.216051675
2586,7.243207465
2587,7.14668627
2588,7.199772622
2589,7.223159504
2590,7.140909495
2591,7.222008034
2592,7.192711308
2593,7.179794075
2594,7.16339545
2595,7.228158896
2596,7.184279009
2597,7.179173555
2598,7.158069359
2599,7.15992084
2600,7.172930571
2601,7.238743162
2602,7.219694173
2603,7.254575426
2604,7.15609442
2605,7.184359321
2606,7.239570907
2607,7.200428368
2608,7.123069819
2609,7.161596349
2610,7.22762442
2611,7.233608677
2612,7.119842949
2613,7.129771693
2614,7.203214273
2615,7.192814524
2616,7.211674055
2617,7.11784727
2618,7.19416824
2619,7.296097747
2620,7.190393483
2621,7.243099734
2622,7.238455826
2623,7.179055349
2624,7.216446399
2625,7.175463056
2626,7.173171202
2627,7.166125879
2628,7.185736628
2629,7.268542327
2630,7.187340973
2631,7.240511519
2632,7.219229001
2633,7.211795269
2634,7.21103403
2635,7.240420504
2636,7.221191672
2637,7.148664493
2638,7.233620377
2639,7.171269038
2640,7.199106457
2641,7.23650609
2642,7.218488963
2643,7.165531929
2644,7.233832822
2645,7.187135243
2646,7.230738715
2647,7.191710273
2648,7.180107199
2649,7.217411008
2650,7.204462845
2651,7.285347306
2652,7.242496087
2653,7.266678098
2654,7.249914259
2655,7.145360056
2656,7.136577181
2657,7.19771163
2658,7.250680145
2659,7.204093997
2660,7.21407691
2661,7.16007126
2662,7.136501638
2663,7.20133234
2664,7.210956314
2665,7.181714617
2666,7.228875302
2667,7.259255633
2668,7.212630708
2669,7.160038905
2670,7.227028308
2671,7.162937248
2672,7.163562156
2673,7.18171226
2674,7.155975609
2675,7.177834994
2676,7.081812138
2677,7.180173538
2678,7.15945173
2679,7.191576552
2680,7.208361424
2681,7.229210711
2682,7.198818594
2683,7.229023799
2684,7.138335188
2685,7.229254579
2686,7.140488978
2687,7.159908653
2688,7.209339415
2689,7.232847232
2690,7.242824484
2691,7.17333278
2692,7.260713669
2693,7.141818141
2694,7.247001281
2695,7.204877338
2696,7.281688657
2697,7.256221876
2698,7.208797241
2699,7.227963907
2700,7.240611475
2701,7.274883174
2702,7.193439487
2703,7.283857174
2704,7.202664638
2705,7.226976612
2706,7.23533434
2707,7.23134604
2708,7.13816994
2709,7.205335841
2710,7.177890083
2711,7.112063408
2712,7.161692497
2713,7.14303258
2714,7.178261331
2715,7.141773559
2716,7.190763775
2717,7.241971675
2718,7.196883763
2719,7.263384405
2720,7.159088997
2721,7.171358738
2722,7.244268259
2723,7.217206437
2724,7.159700141
2725,7.196922967
2726,7.180037798
2727,7.158345632
2728,7.156942923
2729,7.155073799
2730,7.203287463
2731,7.224844283
2732,7.217032686
2733,7.296662193
2734,7.153495356
2735,7.215441589
2736,7.187142539
2737,7.250864708
2738,7.128577948
2739,7.202403984
2740,7.261449083
2741,7.2553891
2742,7.232003277
2743,7.237274224
2744,7.19085971
2745,7.219611734
2746,7.14125361
2747,7.24388114
2748,7.192005013
2749,7.231643526
2750,7.167422845
2751,7.176242241
2752,7.172885555
2753,7.208001059
2754,7.162902554
2755,7.179550987
2756,7.210042625
2757,7.19062938
2758,7.309712962
2759,7.229936546
2760,7.214395254
2761,7.174082728
2762,7.196421946
2763,7.226886119
2764,7.231209941
2765,7.248256974
2766,7.250970116
2767,7.160817446
2768,7.20616366
2769,7.147593883
2770,7.27378863
2771,7.229701463
2772,7.237573998
2773,7.225824481
2774,7.23544045
2775,7.208502861
2776,7.157093391
2777,7.11675533
2778,7.174604565
2779,7.21033901
2780,7.199968052
2781,7.202228908
2782,7.27332897
2783,7.195654122
2784,7.216549563
2785,7.192459104
2786,7.191184604
2787,7.225930212
2788,7.162616491
2789,7.169931313
2790,7.210105376
2791,7.187465726
2792,7.239537184
2793,7.192465716
2794,7.243521933
2795,7.191103409
2796,7.196936022
2797,7.194528575
2798,7.174402004
2799,7.311739445
2800,7.237331226
2801,7.226424879
2802,7.193515214
2803,7.208790753
2804,7.189828608
2805,7.174852491
2806,7.235046496
2807,7.206797743
2808,7.212296578
2809,7.214664153
2810,7.168749649
2811,7.140765638
2812,7.214731016
2813,7.219284407
2814,7.208575517
2815,7.202080858
2816,7.192152232
2817,7.154931842
2818,7.16513317
2819,7.164732558
2820,7.21717156
2821,7.199943802
2822,7.231624914
2823,7.231128236
2824,7.13449996
2825,7.275905615
2826,7.197597423
2827,7.149680716
2828,7.150933009
2829,7.19214777
2830,7.155060156
2831,7.226780614
2832,7.219371143
2833,7.23752825
2834,7.180485985
2835,7.190267711
2836,7.227488251
2837,7.228742585
2838,7.17569919
2839,7.217461889
2840,7.305208049
2841,7.230455554
2842,7.148109863
2843,7.228436012
2844,7.224423598
2845,7.245140167
2846,7.149747655
2847,7.182212499
2848,7.263515156
2849,7.195845412
2850,7.26960843
2851,7.222594862
2852,7.243110247
2853,7.133734914
2854,7.238793182
2855,7.152774714
2856,7.213478318
2857,7.25478973
2858,7.264850284
2859,7.253562505
2860,7.228394381
2861,7.195365587
2862,7.258153864
2863,7.276534014
2864,7.232714176
2865,7.24460258
2866,7.257419954
2867,7.276632145
2868,7.10241741
2869,7.149965021
2870,7.188768498
2871,7.208850115
2872,7.1883123
2873,7.253593324
2874,7.209269966
2875,7.208770678
2876,7.257322505
2877,7.224240392
2878,7.225404266
2879,7.203420061
2880,7.187333766
2881,7.084381372
2882,7.176387579
2883,7.205504181
2884,7.143294415
2885,7.208798328
2886,7.205130804
2887,7.165347338
2888,7.228008831
2889,7.154365162
2890,7.221360587
2891,7.230433835
2892,7.216050463
2893,7.236061544
2894,7.265022333
2895,7.237760622
2896,7.164273761
2897,7.146449557
2898,7.200688141
2899,7.153255787
2900,7.25621163
2901,7.17485245
2902,7.170055937
2903,7.168753525
2904,7.186963022
2905,7.1976146
2906,7.193201908
2907,7.182065876
2908,7.264463019
2909,7.187510564
2910,7.207953168
2911,7.200744353
2912,7.21249343
2913,7.156207522
2914,7.179343775
2915,7.089441324
2916,7.229531095
2917,7.177118267
2918,7.170654637
2919,7.251948966
2920,7.250802973
2921,7.213596333
2922,7.271063172
2923,7.102969295
2924,7.230842638
2925,7.220542852
2926,7.17202652
2927,7.266372756
2928,7.199537573
2929,7.182866359
2930,7.214661391
2931,7.241971123
2932,7.18038436
2933,7.208088083
2934,7.209832883
2935,7.267799213
2936,7.166637772
2937,7.117091155
2938,7.169207837
2939,7.206800835
2940,7.16990137
2941,7.167057864
2942,7.191638781
2943,7.181150953
2944,7.192255311
2945,7.222823872
2946,7.228979857
2947,7.159545428
2948,7.225210063
2949,7.172254749
2950,7.187049507
2951,7.20109857
2952,7.211031447
2953,7.232454477
2954,7.143377844
2955,7.147024674
2956,7.160090559
2957,7.166854512
2958,7.236219331
2959,7.22149218
2960,7.20578091
2961,7.247792898
2962,7.259250499
2963,7.217219048
2964,7.250493816
2965,7.192608993
2966,7.170571602
2967,7.185697299
2968,7.225654194
2969,7.158221842
2970,7.173581558
2971,7.19414188
2972,7.19057987
2973,7.233365186
2974,7.191967769
2975,7.127156347
2976,7.221300326
2977,7.248881123
2978,7.262624413
2979,7.176189899
2980,7.282799347
2981,7.150535571
2982,7.211779123
2983,7.18242466
2984,7.192790648
2985,7.165169875
2986,7.233943716
2987,7.164242759
2988,7.125149436
2989,7.234211018
2990,7.230212943
2991,7.187228459
2992,7.188964915
2993,7.225517081
2994,7.231858342
2995,7.291624989
2996,7.133844672
2997,7.201420055
2998,7.266007488
2999,7.174627475
3000,7.172734203
3001,7.206597289
3002,7.263627842
3003,7.208760903
3004,7.21039092
3005,7.232841663
3006,7.206537534
3007,7.222395351
3008,7.191553358
3009,7.22637064
3010,7.165965231
3011,7.208339726
3012,7.177681865
3013,7.19726129
3014,7.245216963
3015,7.174562719
3016,7.182223966
3017,7.187304417
3018,7.19975216
3019,7.185281028
3020,7.229967943
3021,7.135961513
3022,7.173384838
3023,7.192179949
3024,7.219777682
3025,7.247374663
3026,7.224625287
3027,7.216295533
3028,7.158672212
3029,7.191953202
3030,7.178428613
3031,7.207108869
3032,7.215427476
3033,7.210368377
3034,7.212516457
3035,7.25960676
3036,7.162239793
3037,7.157034293
3038,7.19670392
3039,7.219282091
3040,7.208959746
3041,7.241027812
3042,7.199417169
3043,7.190253669
3044,7.179674004
3045,7.237324175
3046,7.194434941
3047,7.277645783
3048,7.189294638
3049,7.14482077
3050,7.14488021
3051,7.189625845
3052,7.191665578
3053,7.129002765
3054,7.221582024
3055,7.179822124
3056,7.222062352
3057,7.17673869
3058,7.240216394
3059,7.185447845
3060,7.178804812
3061,7.155393577
3062,7.210251802
3063,7.242960137
3064,7.239790237
3065,7.238272264
3066,7.172740895
3067,7.233722809
3068,7.155048474
3069,7.209918587
3070,7.180833202
3071,7.164898235
3072,7.183111189
3073,7.22828645
3074,7.267814672
3075,7.206946775
3076,7.187031761
3077,7.15531969
3078,7.202992406
3079,7.245917622
3080,7.229247473
3081,7.207788868
3082,7.190277743
3083,7.175521298
3084,7.228117533
3085,7.223412263
3086,7.233085095
3087,7.183641976
3088,7.215929715
3089,7.196181265
3090,7.234532456
3091,7.215312676
3092,7.196307899
3093,7.188909615
3094,7.197811125
3095,7.103181395
3096,7.21666355
3097,7.191922775
3098,7.192021198
3099,7.245457436
3100,7.18325987
3101,7.257596404
3102,7.176695351
3103,7.164025228
3104,7.253381179
3105,7.243259221
3106,7.19386316
3107,7.187840168
3108,7.176081305
3109,7.174891119
3110,7.157922001
3111,7.174036197
3112,7.238687371
3113,7.211076603
3114,7.212751591
3115,7.177038768
3116,7.131354757
3117,7.173128249
3118,7.234769958
3119,7.197439135
3120,7.244489872
3121,7.219876326
3122,7.20779628
3123,7.187274193
3124,7.140403021
3125,7.277270347
3126,7.200407515
3127,7.218743169
3128,7.246232263
3129,7.08351337
3130,7.161361526
3131,7.201868441
3132,7.144898062
3133,7.173344926
3134,7.177624821
3135,7.187103597
3136,7.192219235
3137,7.13206293
3138,7.165420631
3139,7.255710096
3140,7.199193547
3141,7.182813196
3142,7.223223455
3143,7.206016271
3144,7.205449813
3145,7.184420087
3146,7.233152105
3147,7.221339818
3148,7.233682689
3149,7.202034743
3150,7.164809533
3151,7.209781716
3152,7.208849979
3153,7.218304977
3154,7.172557218
3155,7.156244073
3156,7.107559033
3157,7.204093445
3158,7.140150309
3159,7.153049141
3160,7.180371041
3161,7.155061147
3162,7.222888363
3163,7.211838978
3164,7.174918335
3165,7.16532392
3166,7.17682951
3167,7.230134666
3168,7.190864193
3169,7.169905855
3170,7.19998775
3171,7.189488044
3172,7.214143278
3173,7.191948823
3174,7.205862523
3175,7.308531215
3176,7.168999059
3177,7.185975359
3178,7.206486022
3179,7.231128415
3180,7.176105067
3181,7.1346611
3182,7.178770092
3183,7.249793205
3184,7.184827042
3185,7.20669878
3186,7.080927759
3187,7.209296307
3188,7.13363012
3189,7.284825047
3190,7.190021766
3191,7.202375283
3192,7.145550609
3193,7.225833716
3194,7.251920908
3195,7.232571533
3196,7.28879353
3197,7.181130025
3198,7.267261563
3199,7.197607409
3200,7.157040356
3201,7.15139398
3202,7.246445378
3203,7.250038652
3204,7.197203126
3205,7.237928697
3206,7.24186141
3207,7.212405456
3208,7.160564939
3209,7.246209289
3210,7.172586898
3211,7.23619502
3212,7.21254143
3213,7.217367753
3214,7.141129157
3215,7.180338714
3216,7.166984372
3217,7.198040989
3218,7.150336473
3219,7.187763479
3220,7.213214346
3221,7.194299996
3222,7.124475811
3223,7.196632002
3224,7.174203775
3225,7.227373732
3226,7.191085471
3227,7.223447
3228,7.216814614
3229,7.1504334
3230,7.150917353
3231,7.129823803
3232,7.199577419
3233,7.224409933
3234,7.177916313
3235,7.230032057
3236,7.138351345
3237,7.268590104
3238,7.229760983
3239,7.185832905
3240,7.193699073
3241,7.157822427
3242,7.185422361
3243,7.20987293
3244,7.201832823
3245,7.211558211
3246,7.207225144
3247,7.20335421
3248,7.224746499
3249,7.132823408
3250,7.170973024
3251,7.182530693
3252,7.194485674
3253,7.146554707
3254,7.240820923
3255,7.259217717
3256,7.248937355
3257,7.226870449
3258,7.223681751
3259,7.193679016
3260,7.209648419
3261,7.178092927
3262,7.17238458
3263,7.177544762
3264,7.201973885
3265,7.172488789
3266,7.269534
3267,7.238663634
3268,7.171178483
3269,7.17751228
3270,7.198548531
3271,7.23432898
3272,7.16585558
3273,7.186323986
3274,7.194906524
3275,7.207081752
3276,7.116114673
3277,7.19133933
3278,7.14045521
3279,7.212751949
3280,7.205802159
3281,7.236217793
3282,7.169192249
3283,7.219790042
3284,7.243284698
3285,7.211649488
3286,7.244909289
3287,7.186126511
3288,7.285044906
3289,7.184349997
3290,7.257395366
3291,7.24152369
3292,7.172673516
3293,7.20155183
3294,7.234510696
3295,7.239571974
3296,7.135793296
3297,7.18764683
3298,7.235858388
3299,7.240437366
3300,7.309617114
3301,7.167623045
3302,7.202025852
3303,7.159372415
3304,7.241731881
3305,7.258292798
3306,7.158388699
3307,7.189119838
3308,7.230610349
3309,7.176022278
3310,7.188249175
3311,7.192462596
3312,7.167859974
3313,7.205368956
3314,7.212226379
3315,7.196799679
3316,7.164044143
3317,7.235983232
3318,7.217543811
3319,7.185288813
3320,7.216148464
3321,7.215920642
3322,7.203942736
3323,7.132588404
3324,7.182528407
3325,7.229042479
3326,7.206048425
3327,7.219489991
3328,7.194630811
3329,7.207416664
3330,7.174212089
3331,7.085409229
3332,7.152877169
3333,7.169467839
3334,7.22900012
3335,7.230901505
3336,7.177451457
3337,7.21343396
3338,7.241567156
3339,7.24363687
3340,7.281671301
3341,7.112692183
3342,7.227649046
3343,7.210247407
3344,7.172407054
3345,7.228395317
3346,7.145796753
3347,7.246165085
3348,7.208224928
3349,7.214560058
3350,7.178871167
3351,7.232044265
3352,7.217675584
3353,7.169097319
3354,7.161164173
3355,7.204265483
3356,7.238845789
3357,7.15895838
3358,7.231444473
3359,7.164820464
3360,7.206433227
3361,7.238163963
3362,7.264711357
3363,7.18434683
3364,7.149547328
3365,7.167179745
3366,7.195731534
3367,7.214941369
3368,7.253455657
3369,7.17124825
3370,7.14109705
3371,7.257122407
3372,7.186131956
3373,7.205483281
3374,7.230168899
3375,7.21864577
3376,7.186830793
3377,7.190851659
3378,7.207402674
3379,7.168773577
3380,7.229950314
3381,7.198722653
3382,7.207265812
3383,7.195460495
3384,7.218786329
3385,7.192253843
3386,7.176860163
3387,7.168812053
3388,7.177827159
3389,7.221551251
3390,7.242120375
3391,7.19595718
3392,7.246464469
3393,7.250805368
3394,7.1613086
3395,7.273216834
3396,7.199280523
3397,7.244779055
3398,7.193696922
3399,7.238912928
3400,7.209866735
3401,7.174265219
3402,7.126492646
3403,7.175713405
3404,7.234787208
3405,7.173710205
3406,7.143033934
3407,7.221752349
3408,7.236764646
3409,7.209182254
3410,7.206247446
3411,7.196918732
3412,7.148653039
3413,7.173118643
3414,7.125504446
3415,7.188380583
3416,7.249112225
3417,7.193457424
3418,7.178690312
3419,7.126284329
3420,7.226030666
3421,7.16434929
3422,7.212014571
3423,7.212522662
3424,7.194598565
3425,7.182940685
3426,7.210590704
3427,7.256250873
3428,7.207884056
3429,7.199709318
3430,7.288714353
3431,7.206361173
3432,7.181819421
3433,7.177457248
3434,7.231472873
3435,7.152339882
3436,7.210791175
3437,7.185901438
3438,7.230305714
3439,7.194974326
3440,7.140714197
3441,7.1176987
3442,7.195149407
3443,7.18816569
3444,7.171279138
3445,7.21466264
3446,7.235413912
3447,7.182389183
3448,7.139133394
3449,7.164649058
3450,7.210502854
3451,7.190422818
3452,7.146997962
3453,7.174509912
3454,7.071830021
3455,7.208244102
3456,7.261601571
3457,7.323754887
3458,7.155025762
3459,7.169293283
3460,7.230996571
3461,7.242597087
3462,7.216237627
3463,7.186669244
3464,7.219702447
3465,7.218509892
3466,7.249889435
3467,7.183657889
3468,7.161460932
3469,7.245727908
3470,7.170901012
3471,7.231191395
3472,7.20349878
3473,7.173561807
3474,7.250958295
3475,7.289468116
3476,7.26268221
3477,7.206149412
3478,7.235372551
3479,7.138597694
3480,7.118550611
3481,7.13525382
3482,7.168004764
3483,7.161695787
3484,7.155679495
3485,7.128605459
3486,7.215514166
3487,7.212972261
3488,7.230462736
3489,7.186314317
3490,7.226826035
3491,7.209017106
3492,7.197654676
3493,7.229334895
3494,7.232545251
3495,7.231226749
3496,7.170109939
3497,7.122723485
3498,7.182410772
3499,7.157196556
3500,7.194467686
3501,7.127950103
3502,7.222602551
3503,7.189912241
3504,7.169799306
3505,7.196122575
3506,7.155929299
3507,7.1361686
3508,7.208886277
3509,7.223268271
3510,7.143818119
3511,7.228668147
3512,7.143402654
3513,7.226386374
3514,7.164948075
3515,7.243497758
3516,7.220994777
3517,7.20345913
3518,7.213792415
3519,7.227551216
3520,7.222030469
3521,7.235234951
3522,7.19872892
3523,7.17308181
3524,7.174767418
3525,7.270520883
3526,7.200926626
3527,7.206882663
3528,7.187941601
3529,7.210729519
3530,7.250053845
3531,7.187900934
3532,7.233159409
3533,7.250255979
3534,7.185204002
3535,7.133726119
3536,7.268257861
3537,7.254539528
3538,7.244400493
3539,7.238765086
3540,7.204447463
3541,7.169940708
3542,7.216144611
3543,7.192709548
3544,7.195964657
3545,7.166435882
3546,7.138613772
3547,7.291215024
3548,7.189144711
3549,7.215937426
3550,7.209241606
3551,7.122372476
3552,7.174457787
3553,7.20744839
3554,7.225916141
3555,7.170424723
3556,7.172151004
3557,7.154350162
3558,7.215698373
3559,7.242552516
3560,7.253067847
3561,7.144925309
3562,7.256866679
3563,7.194869183
3564,7.166729003
3565,7.197115072
3566,7.242924403
3567,7.215804067
3568,7.196123072
3569,7.237805363
3570,7.256862278
3571,7.181634103
3572,7.161547902
3573,7.2146061
3574,7.227815043
3575,7.238032591
3576,7.21039772
3577,7.232912753
3578,7.173159877
3579,7.182671148
3580,7.241403198
3581,7.20145741
3582,7.337329418
3583,7.170935625
3584,7.208670962
3585,7.271591654
3586,7.232443026
3587,7.20608634
3588,7.19937299
3589,7.193484953
3590,7.264555769
3591,7.122159283
3592,7.230750292
3593,7.212376875
3594,7.177277963
3595,7.138195972
3596,7.129126148
3597,7.231822934
3598,7.129172933
3599,7.200103088
3600,7.273630273
3601,7.176282432
3602,7.182867253
3603,7.161367444
3604,7.176783635
3605,7.257875576
3606,7.255156
3607,7.177388393
3608,7.198070916
3609,7.180086389
3610,7.248033257
3611,7.193333255
3612,7.1833461
3613,7.138732504
3614,7.1768963
3615,7.10820284
3616,7.231214215
3617,7.213344791
3618,7.21399345
3619,7.228046932
3620,7.189006563
3621,7.17930278
3622,7.215301219
3623,7.231589634
3624,7.172773885
3625,7.208813561
3626,7.160478832
3627,7.181114411
3628,7.295940724
3629,7.229851695
3630,7.195816951
3631,7.22652352
3632,7.197217624
3633,7.284790877
3634,7.20789761
3635,7.231518376
3636,7.233671325
3637,7.283749821
3638,7.141119023
3639,7.228498162
3640,7.304073061
3641,7.231387239
3642,7.178654011
3643,7.239014791
3644,7.252283024
3645,7.176196581
3646,7.123340137
3647,7.155256995
3648,7.225771619
3649,7.247873789
3650,7.174550943
3651,7.255397049
3652,7.158089391
3653,7.217783427
3654,7.192877266
3655,7.217039263
3656,7.285080643
3657,7.219710537
3658,7.157498376
3659,7.176039769
3660,7.178036439
3661,7.243068228
3662,7.234287826
3663,7.169201881
3664,7.219318401
3665,7.162373757
3666,7.235357312
3667,7.21647169
3668,7.248837116
3669,7.196146187
3670,7.152369995
3671,7.157237514
3672,7.199042228
3673,7.292263927
3674,7.248225167
3675,7.188606607
3676,7.129588387
3677,7.188305776
3678,7.188355404
3679,7.184213382
3680,7.156005296
3681,7.206616051
3682,7.208884252
3683,7.162803247
3684,7.261692506
3685,7.152623963
3686,7.199679765
3687,7.218357703
3688,7.242317622
3689,7.177334894
3690,7.204884184
3691,7.155126289
3692,7.187506143
3693,7.195667012
3694,7.148327665
3695,7.153846647
3696,7.228314954
3697,7.231292044
3698,7.184942951
3699,7.169908618
3700,7.160676031
3701,7.14656432
3702,7.240087888
3703,7.289784967
3704,7.192389297
3705,7.192017713
3706,7.162202537
3707,7.229911389
3708,7.158927255
3709,7.163515578
3710,7.1853955
3711,7.211534116
3712,7.242316606
3713,7.170584637
3714,7.161003408
3715,7.147665964
3716,7.17523038
3717,7.214229863
3718,7.136585975
3719,7.191653726
3720,7.238439144
3721,7.170085048
3722,7.213585085
3723,7.244751802
3724,7.161039215
3725,7.28886352
3726,7.199611359
3727,7.254472085
3728,7.199197171
3729,7.202554296
3730,7.178560655
3731,7.164753647
3732,7.296370153
3733,7.230425014
3734,7.238154003
3735,7.237540424
3736,7.26658142
3737,7.204310998
3738,7.227783021
3739,7.146845006
3740,7.194093707
3741,7.186913958
3742,7.23408202
3743,7.178838573
3744,7.119896293
3745,7.206474379
3746,7.147682179
3747,7.202280561
3748,7.260312275
3749,7.20471748
3750,7.246476379
3751,7.185188952
3752,7.238558937
3753,7.167452532
3754,7.15476193
3755,7.153302612
3756,7.230446373
3757,7.186862754
3758,7.199447844
3759,7.293713181
3760,7.222054734
3761,7.229244616
3762,7.21369968
3763,7.179384904
3764,7.184850299
3765,7.224642297
3766,7.273883161
3767,7.138632732
3768,7.266207327
3769,7.145569732
3770,7.188051958
3771,7.185375561
3772,7.238222271
3773,7.191111876
3774,7.168469788
3775,7.169034564
3776,7.174284922
3777,7.214625715
3778,7.258469458
3779,7.186816584
3780,7.228886331
3781,7.194896596
3782,7.144664713
3783,7.202013548
3784,7.177393909
3785,7.1888514
3786,7.222368402
3787,7.192218596
3788,7.191578618
3789,7.243998911
3790,7.233373707
3791,7.149055442
3792,7.175432333
3793,7.224318873
3794,7.161188359
3795,7.2463997
3796,7.191163882
3797,7.131278159
3798,7.161924227
3799,7.114669467
3800,7.191566991
3801,7.159554874
3802,7.223143175
3803,7.202682629
3804,7.161092267
3805,7.221465527
3806,7.214388915
3807,7.233545668
3808,7.184870259
3809,7.260004619
3810,7.205111172
3811,7.222027743
3812,7.160490077
3813,7.170174238
3814,7.224155511
3815,7.254128716
3816,7.260079475
3817,7.188618386
3818,7.189000734
3819,7.284349234
3820,7.151803876
3821,7.234676803
3822,7.188943161
3823,7.178171435
3824,7.182739379
3825,7.22059263
3826,7.16633859
3827,7.090318764
3828,7.194918257
3829,7.194093453
3830,7.203712931
3831,7.185129924
3832,7.191764603
3833,7.122369514
3834,7.194000611
3835,7.250295606
3836,7.271731795
3837,7.189017689
3838,7.245790674
3839,7.185882075
3840,7.233625374
3841,7.238558288
3842,7.227657296
3843,7.248860526
3844,7.191044196
3845,7.196942657
3846,7.239988061
3847,7.222186996
3848,7.202203521
3849,7.156295504
3850,7.223692488
3851,7.203162731
3852,7.136878731
3853,7.179717273
3854,7.140719469
3855,7.191528021
3856,7.225987273
3857,7.18184487
3858,7.201796837
3859,7.155708368
3860,7.210399366
3861,7.209036105
3862,7.20226435
3863,7.211180428
3864,7.241925202
3865,7.26928403
3866,7.328384298
3867,7.175430574
3868,7.217906392
3869,7.207213741
3870,7.198069045
3871,7.220532619
3872,7.150069285
3873,7.250606391
3874,7.206003851
3875,7.212222854
3876,7.116047084
3877,7.186483503
3878,7.167162387
3879,7.227392534
3880,7.174476753
3881,7.172300041
3882,7.125458491
3883,7.167399919
3884,7.231569911
3885,7.265956147
3886,7.191803365
3887,7.148300859
3888,7.177171933
3889,7.22781769
3890,7.196451752
3891,7.174875261
3892,7.152908603
3893,7.155845236
3894,7.200116211
3895,7.235936835
3896,7.198866676
3897,7.245780351
3898,7.209800158
3899,7.211670322
3900,7.211037932
3901,7.210713192
3902,7.203454642
3903,7.20855729
3904,7.208937745
3905,7.235285116
3906,7.186810292
3907,7.205804532
3908,7.218956343
3909,7.260488732
3910,7.133528642
3911,7.201894742
3912,7.206256314
3913,7.136096162
3914,7.237804232
3915,7.146956459
3916,7.182641133
3917,7.133739231
3918,7.154102319
3919,7.249126583
3920,7.205866684
3921,7.210940476
3922,7.140821175
3923,7.233405476
3924,7.197069154
3925,7.233525232
3926,7.190690291
3927,7.206021075
3928,7.127566541
3929,7.201343453
3930,7.167312227
3931,7.182229373
3932,7.165139289
3933,7.137447459
3934,7.292954428
3935,7.218751657
3936,7.245556488
3937,7.209636979
3938,7.181598891
3939,7.21546488
3940,7.22103938
3941,7.220404431
3942,7.216035954
3943,7.17173278
3944,7.241364992
3945,7.204040978
3946,7.218249168
3947,7.224943699
3948,7.228518878
3949,7.158496624
3950,7.227102586
3951,7.177471327
3952,7.228156599
3953,7.177389699
3954,7.247490626
3955,7.171979888
3956,7.18183457
3957,7.144319374
3958,7.237138626
3959,7.18926222
3960,7.199048163
3961,7.217592037
3962,7.154731544
3963,7.230331774
3964,7.206594171
3965,7.192590739
3966,7.134184714
3967,7.207372717
3968,7.226620426
3969,7.165623898
3970,7.182914826
3971,7.200336331
3972,7.193492258
3973,7.213799658
3974,7.27608297
3975,7.170787751
3976,7.177588266
3977,7.261777548
3978,7.265093784
3979,7.259670247
3980,7.141445085
3981,7.147002841
3982,7.229149155
3983,7.205318557
3984,7.187873325
3985,7.185098334
3986,7.221442286
3987,7.137166156
3988,7.265762756
3989,7.15755052
3990,7.190576998
3991,7.166024244
3992,7.164080753
3993,7.177131962
3994,7.148908691
3995,7.175399667
3996,7.205977852
3997,7.218240047
3998,7.223359509
3999,7.175555562
4000,7.220019796
