Wavenumber (cm⁻¹),Intensity
200.0,877.6600000000001
201.00097751710655,956.3082334869423
202.0019550342131,1054.931437984058
203.00293255131965,1184.6001150677284
204.0039100684262,1352.5893954432659
205.00488758553274,1543.5943665223658
206.0058651026393,1755.7663997293016
207.00684261974584,1969.5819596890544
208.0078201368524,2112.294926686217
209.00879765395894,2145.7805102639295
210.00977517106548,2093.358311809159
211.01075268817203,1961.6823727598571
212.01173020527858,1769.3527492668645
213.01270772238513,1536.0032088628234
214.01368523949168,1286.6428469245848
215.01466275659823,1050.926782370857
216.01564027370478,842.2649927849933
217.01661779081132,678.9592597187774
218.01759530791787,575.3099627791572
219.01857282502445,476.2138074756775
220.019550342131,382.1208492179849
221.02052785923755,321.51182265046754
222.0215053763441,278.0891935483868
223.02248289345064,237.44269338546758
224.0234604105572,200.12603936386185
225.02443792766374,186.34111045943305
226.0254154447703,167.8038972855103
227.02639296187684,147.47217846669443
228.02737047898339,136.16726812166326
229.02834799608993,125.43865732385898
230.02932551319648,110.31239379974872
231.03030303030303,94.596794871795
232.03128054740958,81.23941572406086
233.03225806451613,74.3962965260546
234.03323558162268,70.03695666340835
235.03421309872923,57.81124821415143
236.03519061583577,54.1129060187124
237.03616813294232,58.615621945259036
238.03714565004887,57.43506847274588
239.03812316715542,55.01298161515905
240.03910068426197,51.25641158125028
241.04007820136852,47.38884051432434
242.04105571847506,52.23973155876381
243.0420332355816,36.97701180539925
244.0430107526882,34.2650097286226
245.04398826979474,54.33223099481226
246.0449657869013,63.011983894242064
247.04594330400784,69.74507011805414
248.04692082111438,82.33686859377202
249.04789833822093,103.47468625460597
250.04887585532748,121.69794767956073
251.04985337243403,126.01632669749603
252.05083088954058,120.43951906158354
253.05180840664713,113.72210166177906
254.05278592375367,115.0661181399246
255.05376344086022,125.13835607940445
256.05474095796677,132.02424894102313
257.0557184750733,125.48020076697478
258.05669599217987,119.24060493270184
259.0576735092864,138.38998761811726
260.05865102639297,159.07685060906866
261.0596285434995,178.23726621049195
262.06060606060606,195.09265734265716
263.0615835777126,216.80568132942403
264.06256109481916,254.79119501466317
265.0635386119257,305.18853465530816
266.06451612903226,362.74950844853936
267.0654936461388,398.0345456425298
268.06647116324535,423.0029550807615
269.0674486803519,439.4217144146174
270.06842619745845,447.5394330400783
271.069403714565,450.7892913000978
272.07038123167155,437.870353034063
273.0713587487781,415.302846529815
274.07233626588464,392.6023431273031
275.0733137829912,381.20000418935905
276.07429130009774,391.0348969847352
277.0752688172043,415.4924413722476
278.07624633431084,442.2690274644711
279.0772238514174,489.6536387841539
280.07820136852393,577.59989548086
281.0791788856305,692.8112830610216
282.08015640273703,823.8923760245126
283.0811339198436,997.7273378019772
284.08211143695013,1268.9183459282578
285.0830889540567,1595.7792743815326
286.0840664711632,1969.3127300656256
287.0850439882698,2375.099897360694
288.0860215053764,2764.67554941118
289.0869990224829,3047.0826505752407
290.0879765395895,3227.6628445747856
291.088954056696,3297.4740209467964
292.0899315738026,3166.918955466569
293.0909090909091,2897.7265974025854
294.09188660801567,2548.333045717715
295.0928641251222,2161.6535846948714
296.09384164222877,1783.792101003823
297.0948191593353,1465.7156113205692
298.09579667644186,1201.891469283401
299.0967741935484,980.0748632872434
300.09775171065496,791.02023977366
301.0987292277615,647.3960909654838
302.09970674486806,544.3266862170084
303.1006842619746,457.30134953755817
304.10166177908116,390.68191267513726
305.1026392961877,349.81929252199365
306.10361681329425,316.8096370153141
307.1045943304008,290.5435893676208
308.10557184750735,270.792964390448
309.1065493646139,257.4148305323708
310.10752688172045,244.51339580133137
311.108504398827,228.9211730205273
312.10948191593354,211.90289130940735
313.1104594330401,204.47804740957966
314.11143695014664,200.2238929618767
315.1124144672532,191.27796798631462
316.11339198435974,179.6739745845552
317.1143695014663,180.26503496503503
318.11534701857283,179.45869143043333
319.1163245356794,176.85151289570643
320.11730205278593,177.78253316575896
321.1182795698925,197.50826095947104
322.119257086999,231.15344719080272
323.1202346041056,278.4287863749155
324.1212121212121,339.50936507936416
325.1221896383187,407.11011655011646
326.1231671554252,484.88482530372943
327.12414467253177,563.851556883976
328.1251221896383,621.4921207421609
329.12609970674487,654.9780519480521
330.1270772238514,646.3267428002106
331.12805474095796,576.2486589396282
332.1290322580645,500.987230148885
333.13000977517106,424.7126760694499
334.1309872922776,350.2825407925412
335.13196480938416,294.19539198436075
336.1329423264907,247.1629248439725
337.13391984359725,203.4005458269331
338.1348973607038,157.57484178187474
339.13587487781035,140.87776148582654
340.1368523949169,115.98759977656748
341.13782991202345,95.8375851567789
342.13880742913,97.90330158730143
343.13978494623655,78.96062034739452
344.1407624633431,72.9862350552673
345.14173998044964,78.68664004096246
346.1427174975562,79.56130301150463
347.14369501466274,75.41399078341011
348.1446725317693,68.37684713136338
349.14565004887584,60.77063538611945
350.1466275659824,56.35632331378302
351.14760508308893,55.03743695014663
352.1485826001955,59.28068200616564
353.14956011730203,67.89888144113942
354.1505376344086,65.42045698924782
355.1515151515151,52.14801443001457
356.1524926686217,44.706648996165
357.1534701857282,47.86949469884968
358.1544477028348,42.67633263510698
359.1554252199413,28.809225693661254
360.15640273704787,26.399226644322646
361.1573802541544,44.50262002513517
362.15835777126097,43.51324385292129
363.1593352883675,27.426259367872778
364.16031280547406,32.83362912624971
365.1612903225806,30.03611059907841
366.16226783968716,21.875402285886384
367.1632453567937,13.930037890425284
368.16422287390026,14.31858335213155
369.1652003910068,16.442320625610897
370.16617790811335,19.30890217309561
371.1671554252199,20.529020979020995
372.16813294232645,13.052147279244537
373.169110459433,11.851378299119967
374.17008797653955,15.363718475073453
375.1710654936461,9.871798443492297
376.1720430107527,2.9388745519711605
377.17302052785925,2.0680179900745763
378.1739980449658,6.481351021738122
379.17497556207235,7.323622828784124
380.1759530791789,9.37508504398841
381.17693059628544,12.610531712910667
382.177908113392,8.356435320951446
383.17888563049854,9.515217121588062
384.1798631476051,11.680371921984841
385.18084066471164,12.443021458827916
386.1818181818182,10.39960664335667
387.18279569892474,13.295809553349937
388.1837732160313,14.953713727133099
389.18475073313783,15.708784119106696
390.1857282502444,24.069418423869827
391.18670576735093,26.235316753139333
392.1876832844575,29.800058651026408
393.188660801564,37.45835156778692
394.1896383186706,43.306106875203675
395.1906158357771,56.35704996616307
396.1915933528837,71.64910608388021
397.1925708699902,82.51042334010056
398.19354838709677,93.92182795698908
399.1945259042033,104.3185815662832
400.19550342130987,111.10221529814258
401.1964809384164,121.91749755620698
402.19745845552296,141.64909166102737
403.1984359726295,173.41928091979662
404.19941348973606,218.10302475749978
405.2003910068426,279.74582265046865
406.20136852394916,340.1266155350027
407.2023460410557,389.6568068705481
408.20332355816225,424.8768921535455
409.20430107526886,421.4793434656739
410.2052785923754,391.23196732299806
411.20625610948196,347.3342224979308
412.2072336265885,320.9875785504813
413.20821114369505,313.0273996165123
414.2091886608016,318.35782079479685
415.21016617790815,326.90060205744095
416.2111436950147,319.61046695240185
417.21212121212125,302.6631370851362
418.2130987292278,268.86999689826183
419.21407624633434,219.52864823348628
420.2150537634409,167.8293899917274
421.21603128054744,127.10310943536632
422.217008797654,99.87787756598196
423.21798631476054,83.1423114090208
424.2189638318671,76.39010451913673
425.21994134897363,69.92452199413441
426.2209188660802,54.51121682081344
427.22189638318673,45.1315325606293
428.2228739002933,43.34053067899857
429.2238514173998,46.406564403338585
430.2248289345064,45.946228180421734
431.2258064516129,46.96294044665009
432.2267839687195,46.12786649909231
433.227761485826,46.61405557882978
434.22873900293257,60.11058312655148
435.2297165200391,64.30133882604864
436.23069403714567,68.9223151176781
437.2316715542522,71.7382820835079
438.23264907135876,67.34191950522579
439.2336265884653,76.82550798305675
440.23460410557186,84.15580419580424
441.2355816226784,90.76595075175716
442.23655913978496,105.99083540115822
443.2375366568915,123.52655086848655
444.23851417399806,137.48046883582364
445.2394916911046,152.6120629370631
446.24046920821115,173.33749308755813
447.2414467253177,192.8776355365066
448.24242424242425,218.6093448773444
449.2434017595308,264.40112395668814
450.24437927663735,311.7323362658853
451.2453567937439,368.02088991653505
452.24633431085044,447.83305543918374
453.247311827957,534.197710918116
454.24828934506354,603.9263316110416
455.2492668621701,666.7499069478903
456.25024437927664,736.8253372434012
457.2512218963832,755.5359169862397
458.25219941348973,753.0541348973607
459.2531769305963,728.6948151176787
460.25415444770283,686.7630330959357
461.2551319648094,660.9293029551094
462.2561094819159,647.7738855839502
463.2570869990225,657.0039626099709
464.258064516129,689.871874039939
465.2590420332356,730.5539546206479
466.2600195503421,795.0018948936353
467.26099706744867,898.6072876720048
468.2619745845552,1042.3360100544623
469.26295210166177,1222.7459105947792
470.2639296187683,1451.430703812309
471.26490713587486,1764.1200635386037
472.2658846529814,2201.792510621095
473.26686217008796,2785.07148387095
474.2678396871945,3540.7844471388603
475.26881720430106,4513.11174910394
476.2697947214076,5645.134831660258
477.27077223851416,6723.058711073841
478.2717497556207,7619.957754718372
479.27272727272725,8239.173333333334
480.2737047898338,8075.8529694902
481.27468230694035,7504.227433735643
482.2756598240469,6639.345264069265
483.27663734115345,5550.114853372454
484.27761485826,4567.787227109837
485.27859237536654,3653.2361735845247
486.2795698924731,2892.545669975205
487.28054740957964,2363.4896448354643
488.2815249266862,1971.2197935935196
489.2825024437928,1690.1939063445434
490.28347996089934,1489.6285349462303
491.2844574780059,1350.1587725178024
492.28543499511244,1288.7690724866527
493.286412512219,1275.0943720150813
494.28739002932554,1278.7557097338154
495.2883675464321,1322.8703166224468
496.28934506353863,1433.560624859015
497.2903225806452,1615.646055299547
498.29130009775173,1860.6616970260998
499.2922776148583,2229.192556959177
500.2932551319648,2736.0192319508697
501.2942326490714,3381.715000000021
502.2952101661779,4189.851753107117
503.2961876832845,5316.913096097449
504.297165200391,6590.851588139501
505.29814271749757,7893.847854955107
506.2991202346041,9169.350838032933
507.30009775171067,9694.42129637387
508.3010752688172,9703.642801902399
509.30205278592376,9270.665165479675
510.3030303030303,8462.8363927739
511.30400782013686,7327.058592002954
512.3049853372434,6071.140517990124
513.3059628543499,4889.974008751125
514.3069403714564,3891.291051206902
515.307917888563,3127.601518159299
516.3088954056695,2550.6746819345635
517.3098729227761,2098.3852966388595
518.3108504398826,1753.6994134897527
519.3118279569892,1491.8006637717265
520.3128054740957,1284.921901689725
521.3137829912023,1122.8757483645459
522.3147605083088,1000.1678285155755
523.3157380254154,900.7726310248977
524.3167155425219,807.5544080435747
525.3176930596285,717.5695963982275
526.318670576735,654.2553259786857
527.3196480938416,602.2128028423215
528.3206256109481,553.842755282353
529.3216031280547,509.32813012256986
530.3225806451612,469.5904485407088
531.3235581622678,441.013760997068
532.3245356793743,411.99919387422835
533.3255131964809,366.0967629145076
534.3264907135874,342.76212577386946
535.327468230694,331.0226010414326
536.3284457478005,317.8749082530381
537.3294232649071,300.4810726370421
538.3304007820136,299.57787040915986
539.3313782991202,284.75756598240645
540.3323558162267,256.7656504212651
541.3333333333333,239.35320512820607
542.3343108504398,231.59686442589694
543.3352883675464,227.85442973513958
544.3362658846529,219.02020631250653
545.3372434017595,203.03570674486852
546.338220918866,200.37534231897075
547.3391984359725,202.48298701299
548.3401759530791,176.83846210241364
549.3411534701856,177.05885891169825
550.3421309872922,171.9245695165058
551.3431085043987,164.4833014942039
552.3440860215054,177.87304280397043
553.345063538612,158.90259389803703
554.3460410557185,148.6695894428146
555.347018572825,149.14225505677118
556.3479960899316,157.76401982963299
557.3489736070381,151.03320268441175
558.3499511241447,151.15756353861195
559.3509286412512,151.57983875622585
560.3519061583578,143.71010376719988
561.3528836754643,121.41383382209116
562.3538611925709,123.41922118204423
563.3548387096774,137.5983870967742
564.355816226784,145.19183716820805
565.3567937438905,152.34124768421566
566.3577712609971,156.0919608617189
567.3587487781036,150.0025494577109
568.3597262952102,142.85571922700956
569.3607038123167,149.1711107387242
570.3616813294233,173.9082675389123
571.3626588465298,207.51751165501202
572.3636363636364,223.551818181819
573.3646138807429,245.7580596285431
574.3655913978495,278.1450640040972
575.366568914956,321.28890536882795
576.3675464320626,376.0238597961174
577.3685239491691,405.3382013685247
578.3695014662757,436.3518339724778
579.3704789833822,462.55521947586436
580.3714565004888,446.28185916234247
581.3724340175953,423.1432062561101
582.3734115347019,382.3065805699682
583.3743890518084,336.6983052646265
584.375366568915,303.1613117527637
585.3763440860215,261.41798463901733
586.377321603128,214.332618993908
587.3782991202346,181.6047710354162
588.3792766373411,166.90472997253653
589.3802541544477,148.15809572148203
590.3812316715542,126.53198994553817
591.3822091886608,115.95006259869173
592.3831867057673,106.90676693199283
593.3841642228739,99.86553378073565
594.3851417399804,94.68359726295215
595.386119257087,87.53908226182412
596.3870967741935,74.25098310291888
597.3880742913001,69.99943163019772
598.3890518084066,77.41351356886867
599.3900293255132,91.496020189488
600.3910068426197,90.18988852545309
601.3919843597263,86.54209545830504
602.3929618768328,80.09258204161455
603.3939393939394,70.96360431235442
604.3949169110459,63.3484704184702
605.3958944281525,56.91369727047163
606.396871945259,56.07258762742633
607.3978494623656,59.474650537634176
608.3988269794721,61.634346041055665
609.3998044965787,66.86261542221213
610.4007820136852,68.98556914769821
611.4017595307918,68.46853005865103
612.4027370478983,69.48562146813758
613.4037145650049,64.3161282803221
614.4046920821114,62.189889465372794
615.405669599218,70.28541311734857
616.4066471163245,72.30196433942402
617.4076246334312,73.63164809384199
618.4086021505377,74.05664598841885
619.4095796676443,65.31079402318161
620.4105571847508,70.75571227160013
621.4115347018574,81.86920001862045
622.4125122189639,93.81226783968754
623.4134897360705,102.91212651864156
624.414467253177,86.84860149259144
625.4154447702836,68.60963615685328
626.4164222873901,67.6118391286133
627.4173998044967,92.57032352056837
628.4183773216032,108.15708951263865
629.4193548387098,97.71094913151256
630.4203323558163,93.95604227761478
631.4213098729228,103.4024557091662
632.4222873900294,109.52944507105819
633.423264907136,106.17401629195105
634.4242424242425,106.52308857808895
635.425219941349,112.03775450356137
636.4261974584556,116.49377114820679
637.4271749755621,121.71077195922382
638.4281524926687,123.0246007218583
639.4291300097752,120.16037145650067
640.4301075268818,125.89811414392098
641.4310850439883,137.17228822790196
642.4320625610949,142.61493194976964
643.4330400782014,138.3263802729536
644.434017595308,158.80976818880103
645.4349951124145,165.12196029776604
646.4359726295211,159.17967201973684
647.4369501466276,168.58749605233473
648.4379276637342,167.86111669692264
649.4389051808407,162.9515603034956
650.4398826979473,152.04361606135723
651.4408602150538,137.13538453661016
652.4418377321604,131.12098437852455
653.4428152492669,121.33766373411454
654.4437927663735,110.42103485224426
655.44477028348,101.40648792068116
656.4457478005866,95.55519794721373
657.4467253176931,87.97158414166447
658.4477028347997,77.77586342689531
659.4486803519062,71.99278817956223
660.4496578690128,72.94119163990149
661.4506353861193,70.81248702909966
662.4516129032259,62.528863287249784
663.4525904203324,57.550797052409976
664.453567937439,57.03276218405244
665.4545454545455,53.447185314685015
666.455522971652,50.75154931806542
667.4565004887586,55.8064895856827
668.4574780058651,46.033778522552616
669.4584555229717,44.45223268666817
670.4594330400782,43.80940230468424
671.4604105571848,35.93229241726097
672.4613880742913,48.47032032483645
673.4623655913979,48.70131513647644
674.4633431085044,44.30614578969383
675.464320625611,42.13410801564025
676.4652981427175,50.434577107480706
677.4662756598241,45.871427926911245
678.4672531769306,39.294053809989116
679.4682306940372,34.64448699150297
680.4692082111437,34.21243597262952
681.4701857282503,44.00018234453718
682.4711632453568,36.673339198435144
683.4721407624634,25.456559327768954
684.4731182795699,28.538064516129047
685.4740957966765,37.47392435521503
686.475073313783,39.14583239341283
687.4760508308896,36.03385272075594
688.4770283479961,40.89911497105071
689.4780058651027,43.36649099287779
690.4789833822092,28.544655425219908
691.4799608993158,4.843329516362586
692.4809384164223,24.799798669073446
693.4819159335289,32.38015454079971
694.4828934506354,24.602458831490665
695.483870967742,12.299351766512737
696.4848484848485,20.726629148629186
697.485826001955,21.277488250996335
698.4868035190616,23.559878787878734
699.4877810361681,32.76179505977895
700.4887585532747,44.912775020678694
701.4897360703812,36.50840078201385
702.4907135874878,24.48406731709152
703.4916911045943,20.8266471163245
704.4926686217009,25.4220200766975
705.4936461388074,34.44248819997209
706.494623655914,44.63739247311869
707.4956011730205,41.77411813992437
708.4965786901271,32.33595552297163
709.4975562072336,30.31706828655213
710.4985337243402,34.035127735167876
711.4995112414467,41.73929925987995
712.5004887585533,49.79019851116626
713.5014662756598,52.281002653260565
714.5024437927664,57.96500272576891
715.5034213098729,66.61297259192433
716.5043988269795,69.66601005446235
717.505376344086,53.29124276261372
718.5063538611926,50.82657934180515
719.5073313782991,50.94810004511613
720.5083088954057,52.23782107677269
721.5092864125122,66.89620071684652
722.5102639296188,56.79419918790916
723.5112414467253,62.33961690639115
724.5122189638319,69.05220063538577
725.5131964809384,66.57657561793059
726.514173998045,64.39385104143167
727.5151515151515,64.3680779220779
728.516129032258,62.05597704714652
729.5171065493646,60.979109707496804
730.5180840664711,66.53221766047551
731.5190615835777,72.0604240920369
732.5200391006842,73.54877158683611
733.5210166177908,73.32220853071661
734.5219941348973,73.19856723921238
735.5229716520039,75.09455579366872
736.5239491691104,77.4720745705907
737.524926686217,78.12328755921489
738.5259042033235,79.6074130242518
739.5268817204301,77.47456989247303
740.5278592375366,82.13698366149912
741.5288367546432,102.64772417099026
742.5298142717497,114.66564939093203
743.5307917888563,109.1552788716661
744.5317693059628,105.11323632639758
745.5327468230694,111.38966971200799
746.5337243401759,129.57460215053706
