Raman Shift,Intensity
147.1535,0.038773999
147.6356,0.256815
148.1178,0.648384
148.5999,0.97616
149.082,1.076431
149.5641,1.165865
150.0462,1.503191
150.5283,2.480219
151.0105,3.303839
151.4926,3.404222
151.9747,2.846113
152.4568,2.564438
152.9389,2.822353
153.421,3.304991
153.9032,3.576225
154.3853,3.484226
154.8674,3.277622
155.3495,3.04834
155.8316,2.85837
156.3137,2.514214
156.7959,1.782652
157.278,0.890884
157.7601,0.270472
158.2422,0.087932996
158.7243,0.128944
159.2065,0.310558
159.6886,0.738459
160.1707,1.091925
160.6528,1.241268
161.1349,1.242447
161.617,1.246923
162.0992,1.496086
162.5813,1.646666
163.0634,1.457478
163.5455,0.287539
164.0276,0.871559
164.5097,1.251789
164.9919,1.44598
165.474,0.896273
165.9561,1.307831
166.4382,0.975382
166.9203,1.383062
167.4024,1.594227
167.8846,1.623755
168.3667,0.904968
168.8488,1.147392
169.3309,1.004965
169.813,0.846973
170.2952,1.225317
170.7773,0.615942
171.2594,0.990692
171.7415,0.970051
172.2236,1.128513
172.7057,0.899654
173.1879,0.790602
173.67,1.071581
174.1521,1.135738
174.6342,1.15836
175.1163,1.337254
175.5984,1.311411
176.0806,1.086088
176.5627,0.754459
177.0448,0.425106
177.5269,0.042004
178.009,0.399906
178.4911,0.645103
178.9733,0.704142
179.4554,0.019165
179.9375,0.295277
180.4196,0.186468
180.9017,0.061992999
181.3838,0.473793
181.866,0.101999
182.3481,0.30208
182.8302,0.31535
183.3123,0.508478
183.7944,0.314714
184.2766,0.241123
184.7587,0.556301
185.2408,0.657131
185.7229,0.421263
186.205,0.629299
186.6871,0.045297999
187.1693,0.156723
187.6514,0.568115
188.1335,0.35261
188.6156,0.56814
189.0977,0.619486
189.5798,0.075263999
190.062,0.527481
190.5441,0.569082
191.0262,0.034472
191.5083,0.407791
191.9904,0.046326
192.4725,0.481834
192.9547,0.720451
193.4368,0.772764
193.9189,0.080881
194.401,0.349901
194.8831,0.233801
195.3652,0.101881
195.8474,0.50605
196.3295,0.077738002
196.8116,0.317869
197.2937,0.322464
197.7758,0.505968
198.2579,0.301956
198.7401,0.217581
199.2222,0.520781
199.7043,0.609325
200.1864,0.36055
200.6685,0.555199
201.1507,0.042528
201.6328,0.503067
202.1149,0.540792
202.597,0.196836
203.0791,0.065241002
203.5612,0.267094
204.0434,0.64702
204.5255,0.829941
205.0076,0.802366
205.4897,0.627319
205.9718,0.251846
206.4539,0.407085
206.9361,0.746553
207.4182,0.629137
207.9003,0.19681
208.3824,0.095392004
208.8645,0.207045
209.3466,0.286354
209.8288,0.454451
210.3109,0.766897
210.793,0.913647
211.2751,0.808725
211.7572,0.533648
212.2393,0.390699
212.7215,0.420982
213.2036,0.495968
213.6857,0.514648
214.1678,0.412691
214.6499,0.456287
215.132,0.693352
215.6142,1.092438
216.0963,1.560873
216.5784,2.221392
217.0605,2.724598
217.5426,2.74206
218.0247,1.935722
218.5069,1.573019
218.989,1.918232
219.4711,2.452288
219.9532,3.033913
220.4353,3.422737
220.9175,3.600296
221.3996,3.022163
221.8817,3.412888
222.3638,3.444466
222.8459,3.477936
223.328,4.015757
223.8102,3.54776
224.2923,4.05551
224.7744,4.205667
225.2565,4.513428
225.7386,4.43655
226.2207,4.483177
226.7029,4.897585
227.185,5.119621
227.6671,4.212147
228.1492,4.480497
228.6313,4.822287
229.1134,4.778418
229.5956,4.023819
230.0777,3.625051
230.5598,3.786907
231.0419,4.383657
231.524,4.808899
232.0062,5.061226
232.4883,5.146276
232.9704,5.031303
233.4525,4.555336
233.9346,4.2444
234.4167,4.213331
234.8989,4.386612
235.381,4.390776
235.8631,4.062742
236.3452,3.781752
236.8273,3.790369
237.3094,4.286438
237.7916,4.637173
238.2737,4.760597
238.7558,4.710197
239.2379,4.713034
239.72,4.788397
240.2021,4.889561
240.6843,5.021013
241.1664,5.333204
241.6485,5.320862
242.1306,4.774788
242.6127,3.888605
243.0948,3.446688
243.577,3.711464
244.0591,4.057096
244.5412,4.133051
245.0233,3.70167
245.5054,3.551397
245.9876,3.851805
246.4697,4.430723
246.9518,4.736271
247.4339,4.626455
247.916,4.454845
248.3981,4.398352
248.8803,4.545795
249.3624,4.575331
249.8445,4.362268
250.3266,4.057787
250.8087,4.125223
251.2908,4.831207
251.773,5.477312
252.2551,5.745424
252.7372,5.548412
253.2193,5.169006
253.7014,4.455254
254.1835,3.626705
254.6657,3.221828
255.1478,3.390953
255.6299,3.71649
256.112,4.101503
256.5941,4.694839
257.0763,4.809912
257.5584,4.181856
258.0405,3.243484
258.5226,2.947798
259.0047,3.678556
259.4868,4.251898
259.969,4.150005
260.4511,3.185728
260.9332,2.377371
261.4153,1.655972
261.8974,1.140076
262.3795,1.144064
262.8617,1.984877
263.3438,2.574305
263.8259,2.430399
264.308,1.378511
264.7901,0.743366
265.2722,0.698093
265.7544,0.93206
266.2365,0.953461
266.7186,0.676195
267.2007,0.422096
267.6828,0.290165
268.1649,0.283682
268.6471,0.334707
269.1292,0.484327
269.6113,0.628075
270.0934,0.597061
270.5755,0.317842
271.0576,0.151464
271.5398,0.243542
272.0219,0.583738
272.504,0.782331
272.9861,0.828192
273.4682,0.754951
273.9503,0.529186
274.4325,0.094002001
274.9146,0.148073
275.3967,0.0084950002
275.8788,0.435888
276.361,0.499685
276.8431,0.075304002
277.3252,0.402304
277.8073,0.465401
278.2894,0.065495998
278.7715,0.16378
279.2537,0.0064010001
279.7358,0.418583
280.2179,0.699507
280.7,0.192251
281.1821,0.117884
281.6642,0.24165
282.1464,0.378813
282.6285,0.038694002
283.1106,0.083857
283.5927,0.14501
284.0748,0.329733
284.5569,0.183535
285.0391,0.282391
285.5212,0.357264
286.0033,0.611004
286.4854,0.477215
286.9675,0.463053
287.4496,0.836428
287.9318,0.995138
288.4139,0.816519
288.896,1.081297
289.3781,0.553701
289.8602,0.721323
290.3423,1.188862
290.8245,1.029444
291.3066,0.525169
291.7887,0.473846
292.2708,0.715954
292.7529,0.937098
293.235,0.905262
293.7172,0.714733
294.1993,0.666903
294.6814,0.790176
295.1635,0.986851
295.6456,1.192129
296.1277,1.38496
296.6099,1.470333
297.092,1.265213
297.5741,0.950371
298.0562,0.956831
298.5383,1.315527
299.0204,1.667444
299.5026,1.648558
299.9847,0.98761
300.4668,1.451605
300.9489,1.718693
301.4311,1.799461
301.9132,1.136005
302.3953,1.433434
302.8774,1.345718
303.3595,1.242153
303.8416,1.674685
304.3238,1.119215
304.8059,1.543133
305.288,1.576046
305.7701,1.787836
306.2522,1.612091
306.7343,1.806276
307.2165,1.691977
307.6986,1.438482
308.1807,1.385809
308.6628,1.714989
309.1449,2.104038
309.627,2.365891
310.1092,2.498936
310.5913,2.489822
311.0734,2.067755
311.5555,1.641426
312.0376,1.637247
312.5197,2.299963
313.0019,2.92828
313.484,3.032953
313.9661,2.825546
314.4482,2.740128
314.9303,3.190868
315.4124,3.658195
315.8946,3.749075
316.3767,3.320463
316.8588,3.017565
317.3409,3.13386
317.823,3.521852
318.3051,3.985237
318.7873,4.730143
319.2694,5.311026
319.7515,5.505621
320.2336,5.282349
320.7157,4.970135
321.1978,4.56501
321.68,4.158089
322.1621,3.83337
322.6442,3.508854
323.1263,3.369286
323.6084,3.475035
324.0905,3.818962
324.5727,4.301928
325.0548,5.148117
325.5369,5.973965
326.019,6.545919
326.5012,6.77651
326.9833,6.835367
327.4654,6.58485
327.9475,6.130156
328.4296,5.898308
328.9117,6.136333
329.3939,6.380421
329.876,6.440733
330.3581,6.235233
330.8402,5.989237
331.3223,5.686049
331.8044,5.371397
332.2866,5.083845
332.7687,4.817509
333.2508,4.543501
333.7329,4.235704
334.215,3.869028
334.6971,3.657166
335.1793,3.6548
335.6614,3.690237
336.1435,3.555277
336.6256,3.128544
337.1077,2.816267
337.5898,2.751673
338.072,2.923721
338.5541,3.02948
339.0362,3.066856
339.5183,2.99132
340.0004,2.697783
340.4825,1.852972
340.9647,2.170767
341.4468,2.287855
341.9289,2.238487
342.411,1.422649
342.8931,1.589493
343.3752,1.371771
343.8574,1.139086
344.3395,1.442133
344.8216,0.757145
345.3037,1.052017
345.7858,0.955894
346.2679,1.038666
346.7501,0.733919
347.2322,1.0863
347.7143,1.332129
348.1964,1.391653
348.6785,0.706982
349.1607,0.982943
349.6428,0.873554
350.1249,0.748854
350.607,1.160257
351.0891,0.583691
351.5713,0.986536
352.0534,0.998381
352.5355,1.19206
353.0176,1.007557
353.4997,0.932594
353.9818,1.243904
354.464,0.817928
354.9461,0.6155034
355.4282,0.9340084
355.9103,1.127379
356.3924,1.202336
356.8745,0.8042263
357.3567,1.016991
357.8388,0.9849421
358.3209,0.942853
358.803,1.241591
359.2851,0.9122857
359.7672,1.205618
360.2494,1.126938
360.7315,1.363912
361.2136,1.535334
361.6957,1.644735
362.1778,1.506333
362.6599,1.687917
363.1421,1.741278
363.6242,1.78937
364.1063,2.015984
364.5884,2.661282
365.0705,3.259886
365.5526,3.760321
366.0348,4.050152
366.5169,3.986242
366.999,3.596497
367.4811,3.361145
367.9632,3.449835
368.4453,3.619127
368.9275,3.732138
369.4096,3.798344
369.8917,3.792862
370.3738,3.697359
370.8559,3.529749
371.338,3.344267
371.8202,3.15551
372.3023,2.925615
372.7844,2.62602
373.2665,2.224005
373.7487,1.887371
374.2308,1.607492
374.7129,1.401886
375.195,1.317514
375.6771,1.411592
376.1592,1.441128
376.6414,1.320662
377.1235,1.069288
377.6056,0.868801
378.0877,0.71648
378.5698,0.617975
379.0519,0.62023
379.5341,0.724796
380.0162,0.698265
380.4983,0.441669
380.9804,0.103905
381.4625,0.079999998
381.9446,0.1321538
382.4268,0.4011666
382.9089,0.5450455
383.391,0.5705135
383.8731,0.1229118
384.3552,0.2861812
384.8373,0.2046406
385.3195,0.1130594
385.8016,0.3623051
386.2837,-0.016488567
386.7658,0.2273523
387.2479,0.2226494
387.73,0.3316982
388.2122,0.1944241
388.6943,0.1332328
389.1764,0.51679
389.6585,0.683664
390.1406,0.668392
390.6227,0.342054
391.1049,0.040359002
391.587,0.076603003
392.0691,0.335321
392.5512,0.468731
393.0333,0.154816
393.5154,0.222725
393.9976,0.399687
394.4797,0.277313
394.9618,0.171686
395.4439,0.230965
395.926,0.351774
396.4081,0.396364
396.8903,0.146406
397.3724,0.0051779998
397.8545,0.164063
398.3366,0.642653
398.8188,0.950659
399.3009,0.866627
399.783,0.726688
400.2651,0.752785
400.7472,1.216604
401.2293,1.428358
401.7115,1.22283
402.1936,0.755806
402.6757,0.504827
403.1578,0.553539
403.6399,0.679327
404.122,0.878246
404.6042,1.091898
405.0863,1.541025
405.5684,1.793289
406.0505,1.859251
406.5326,1.18148
407.0147,1.46513
407.4969,1.363373
407.979,1.836222
408.4611,1.792198
408.9432,1.407297
409.4253,0.643015
409.9074,0.035259001
410.3896,0.221592
410.8717,0.00099600002
411.3538,0.283735
411.8359,0.622444
412.318,0.899982
412.8001,0.854412
413.2823,0.574404
413.7644,0.401924
414.2465,0.761946
414.7286,1.2187
415.2107,0.671541
415.6928,1.034424
416.175,1.200407
416.6571,1.180098
417.1392,0.415607
417.6213,0.612005
418.1034,0.361904
418.5855,0.085805997
419.0677,0.171156
419.5498,0.527008
420.0319,0.810745
420.514,0.794724
420.9961,0.729607
421.4782,0.797384
421.9604,1.13052
422.4425,1.305012
422.9246,1.013174
423.4067,0.570221
423.8889,0.405048
424.371,0.918818
424.8531,1.350948
425.3352,1.500637
425.8173,1.367334
426.2994,1.302576
426.7816,1.370575
427.2637,1.444103
427.7458,1.427589
428.2279,1.245985
428.71,1.166815
429.1921,1.255632
429.6743,1.424919
430.1564,1.45714
430.6385,1.323879
431.1206,1.181084
431.6027,1.043869
432.0848,0.913239
432.567,0.988422
433.0491,1.311329
433.5312,1.682362
434.0133,1.932394
434.4954,2.059654
434.9775,2.023598
435.4597,1.737459
435.9418,1.380072
436.4239,1.283215
436.906,1.421999
437.3881,1.621323
437.8702,1.80471
438.3524,1.969324
438.8345,2.102243
439.3166,2.199636
439.7987,2.3018
440.2808,2.431694
440.7629,2.60721
441.2451,2.812691
441.7272,3.255047
442.2093,3.563124
442.6914,3.373352
443.1735,2.781221
443.6556,2.426609
444.1378,2.730556
444.6199,3.223185
445.102,3.643557
445.5841,4.078953
446.0662,4.190201
446.5483,3.541182
447.0305,2.598232
447.5126,2.188511
447.9947,2.934269
448.4768,3.520872
448.959,3.584684
449.4411,3.086477
449.9232,2.76067
450.4053,2.733274
450.8874,2.745924
451.3695,2.494717
451.8517,1.807774
452.3338,1.610876
452.8159,2.167353
453.298,3.048986
453.7801,3.336803
454.2622,2.993574
454.7444,2.590977
455.2265,2.356274
455.7086,2.274221
456.1907,2.318439
456.6728,2.504633
457.1549,2.626835
457.6371,2.455315
458.1192,2.075407
458.6013,1.678471
459.0834,1.265816
459.5655,0.943777
460.0476,0.883741
460.5298,1.020823
461.0119,0.9295566
461.494,1.178301
461.9761,1.301907
462.4582,1.307103
462.9403,0.8392286
463.4225,0.9822194
463.9046,0.880406
464.3867,0.7685565
464.8688,0.9975296
465.3509,0.5984645
465.833,1.260759
466.3152,1.497345
466.7973,1.548931
467.2794,0.864113
467.7615,1.142408
468.2436,1.015369
468.7257,0.879593
469.2079,1.281082
469.69,0.4545616
470.1721,0.8210716
470.6542,1.062452
471.1363,1.185416
471.6184,0.8353181
472.1006,1.096102
472.5827,0.804127
473.0648,1.218767
473.5469,1.435747
474.0291,1.466358
474.5112,0.752726
474.9933,1.000641
475.4754,0.873623
475.9575,0.756458
476.4396,1.173391
476.9218,1.085796
477.4039,1.010246
477.886,0.811014
478.3681,0.676775
478.8502,0.697979
479.3323,0.746017
479.8145,0.720972
480.2966,0.639025
480.7787,0.563908
481.2608,0.524607
481.7429,0.499718
482.225,0.478037
482.7072,0.454889
483.1893,0.458511
483.6714,0.4527296
484.1535,0.7785709
484.6356,0.9792738
485.1177,1.061567
485.5999,0.6708004
486.082,0.8908933
486.5641,0.8661776
487.0462,0.8314261
487.5283,1.137497
488.0104,0.288445
488.4926,0.070455998
488.9747,0.087736003
489.4568,0.034458
489.9389,0.110657
490.421,0.292797
490.9031,0.472498
491.3853,0.655743
491.8674,0.734428
492.3495,0.636894
492.8316,0.483572
493.3137,0.618122
493.7958,0.997812
494.278,1.250607
494.7601,1.015585
495.2422,0.553904
495.7243,0.41341
496.2064,0.630907
496.6885,0.821404
497.1707,0.469131
497.6528,0.124905
498.1349,0.460314
498.617,0.22295
499.0992,0.079620004
499.5813,0.164688
500.0634,0.104656
500.5455,0.079254001
501.0276,0.200348
501.5097,0.320162
501.9919,0.343708
502.474,0.232086
502.9561,0.265043
503.4382,0.680092
503.9203,1.092299
504.4024,1.229841
504.8846,0.947466
505.3667,0.674007
505.8488,0.37529
506.3309,0.13681
506.813,0.210722
507.2951,0.691301
507.7773,1.064335
508.2594,1.141848
508.7415,0.553394
509.2236,0.994167
509.7057,1.237959
510.1878,1.295349
510.67,0.608427
511.1521,0.884666
511.6342,0.773329
512.1163,0.646025
512.5984,1.054726
513.0806,0.47534
513.5627,0.875259
514.0448,0.88406
514.5269,1.047045
515.009,0.609695
515.4911,1.061932
515.9733,1.317181
516.4554,1.386023
516.9375,0.710558
517.4196,0.995884
517.9017,0.895964
518.3839,0.780123
518.866,1.200277
519.3481,0.632343
519.8302,1.043701
520.3123,1.172129
520.7944,0.931522
521.2766,0.772358
521.7587,0.806656
522.2408,0.973032
522.7229,1.043947
523.205,1.0207
523.6871,0.900076
524.1693,0.573269
524.6514,0.082957998
525.1335,0.014414
525.6156,0.331606
526.0977,0.742208
526.5798,0.758619
527.062,0.524483
527.5441,0.506653
528.0262,0.932402
528.5083,1.365425
528.9904,1.202761
529.4725,0.679604
529.9547,0.342951
530.4368,0.726925
530.9189,1.179068
531.401,1.26712
531.8831,0.979
532.3652,0.629856
532.8474,0.050205
533.3295,0.373198
533.8116,0.360779
534.2937,0.6492
534.7758,1.177069
535.2579,0.823814
535.7401,0.152639
536.2222,0.034042001
536.7043,0.821739
537.1864,1.31221
537.6685,1.135973
538.1506,0.479403
538.6328,0.2554
539.1149,0.526672
539.597,0.828896
540.0791,0.822615
540.5612,0.59269
541.0433,0.613802
541.5255,0.939287
542.0076,1.165003
542.4897,0.622471
542.9718,0.278532
543.4539,0.662453
543.936,0.003153
544.4182,0.741901
544.9003,0.601387
545.3824,0.046797
545.8645,0.379551
546.3466,0.352871
546.8287,1.098518
547.3109,1.314178
547.793,0.964384
548.2751,0.709856
548.7572,0.809221
549.2393,0.902502
549.7214,0.774361
550.2036,0.224812
550.6857,0.096643001
551.1678,0.138071
551.6499,0.000294
552.132,0.370279
552.6141,1.074955
553.0963,1.315018
553.5784,0.712387
554.0605,0.302307
554.5426,0.546936
555.0247,0.066574
555.5068,0.507566
555.989,0.890976
556.4711,1.147861
556.9532,1.320192
557.4353,1.346117
557.9174,1.343521
558.3995,1.433559
558.8817,1.536552
559.3638,1.46879
559.8459,1.093277
560.3281,0.840014
560.8102,1.002653
561.2923,1.386251
561.7744,1.532604
562.2565,1.136436
562.7386,0.818087
563.2208,0.721186
563.7029,0.79497
564.185,0.928934
564.6671,1.168461
565.1492,1.406874
565.6313,1.664202
566.1135,1.921549
566.5956,1.860888
567.0777,1.217339
567.5598,1.539243
568.0419,1.736007
568.524,1.814363
569.0062,1.419661
569.4883,1.635815
569.9704,1.607165
570.4525,1.829435
570.9346,1.634781
571.4167,1.416391
571.8989,1.209301
572.381,1.137623
572.8631,1.445772
573.3452,2.046926
573.8273,2.366159
574.3094,1.872953
574.7916,1.282442
575.2737,0.999603
575.7558,1.177645
576.2379,1.281013
576.72,1.204571
577.2021,1.123825
577.6843,1.215776
578.1664,1.554247
578.6485,1.843809
579.1306,2.07275
579.6127,2.219542
580.0948,2.237673
580.577,2.126711
581.0591,1.933348
581.5412,1.570305
582.0233,1.195627
582.5054,1.206532
582.9875,1.565517
583.4697,1.992641
583.9518,2.374702
584.4339,2.655285
584.916,2.777645
585.3981,2.735968
585.8802,2.548664
586.3624,1.992666
586.8445,1.410034
587.3266,1.117983
587.8087,1.574266
588.2908,1.822294
588.7729,1.510262
589.2551,0.986691
589.7372,0.866869
590.2193,1.398432
590.7014,1.836437
591.1835,1.981112
591.6656,1.899363
592.1478,1.768984
592.6299,1.528732
593.112,1.405197
593.5941,1.713896
594.0762,2.263107
594.5583,2.227497
595.0405,1.545786
595.5226,0.897228
596.0047,0.963326
596.4868,0.604818
596.9689,1.567162
597.451,2.090679
597.9332,2.197853
598.4153,0.640942
598.8974,1.231976
599.3795,0.962933
599.8616,0.6586
600.3438,1.552042
600.8259,0.207069
601.308,1.027235
601.7901,1.015356
602.2722,1.416466
602.7543,0.951052
603.2365,0.737679
603.7186,1.369854
604.2007,1.557302
604.6828,0.99287
605.1649,1.419691
605.647,0.075623997
606.1292,0.285614
606.6113,1.166119
607.0934,0.645458
607.5755,1.088305
608.0576,1.16118
608.5398,0.448196
609.0219,0.839127
609.504,0.958273
609.9861,1.568293
610.4683,1.335028
610.9504,0.583374
611.4325,0.01071
611.9146,0.27408
612.3967,0.32243
612.8788,0.113417
613.361,0.939453
613.8431,1.152811
614.3252,0.569668
614.8073,0.398211
615.2894,0.926199
615.7715,1.037937
616.2537,0.513554
616.7358,0.082685001
617.2179,0.181749
617.7,0.481459
618.1821,0.417088
618.6642,0.743536
619.1464,0.2887
619.6285,0.880989
620.1106,1.057026
620.5927,0.430157
621.0748,0.230412
621.5569,0.030323001
622.0391,0.204945
622.5212,0.758146
623.0033,0.486876
623.4854,0.457205
623.9675,0.527479
624.4496,0.997789
624.9318,0.602123
625.4139,0.474014
625.896,1.212336
626.3781,1.468683
626.8602,0.973614
627.3423,1.46983
627.8245,0.195213
628.3066,0.474689
628.7887,1.424742
629.2708,0.973682
629.7529,0.57128
630.235,0.425695
630.7172,0.350826
631.1993,0.377136
631.6814,0.455908
632.1635,0.542696
632.6456,0.656061
633.1277,0.827271
633.6099,1.231356
634.092,1.517771
634.5741,1.449631
635.0562,1.153173
635.5383,1.126076
636.0204,1.623541
636.5026,2.036268
636.9847,2.135403
637.4668,1.949125
637.9489,1.971684
638.431,2.259356
638.9131,2.505323
639.3953,2.498545
639.8774,2.274275
640.3595,1.916407
640.8416,1.409235
641.3237,1.05019
641.8058,1.21825
642.288,1.678738
642.7701,2.133614
643.2522,2.58429
643.7343,2.849859
644.2164,2.685368
644.6985,2.334406
645.1807,2.12273
645.6628,2.183662
646.1449,2.312191
646.627,2.502148
647.1091,2.733885
647.5912,2.96279
648.0734,3.214252
648.5555,3.390617
649.0376,3.424395
649.5197,3.366407
650.0018,3.415808
650.4839,3.573109
650.9661,3.874519
651.4482,4.626627
651.9303,5.442225
652.4124,5.455479
652.8945,4.653582
653.3766,4.049316
653.8588,4.58725
654.3409,5.444506
654.823,5.894278
655.3051,5.623312
655.7872,5.4886
656.2693,5.852219
656.7515,6.337643
657.2336,6.568192
657.7158,6.360647
658.1979,6.294044
658.68,6.418596
659.1621,6.694122
659.6442,7.109507
660.1263,7.665487
660.6085,8.1014
661.0906,8.277021
661.5727,8.355812
662.0548,8.691544
662.5369,9.205072
663.019,9.59519
663.5012,9.488359
663.9833,9.362333
664.4654,9.635832
664.9475,10.2689
665.4296,10.87709
665.9117,11.39804
666.3939,11.7905
666.876,12.06636
667.3581,12.19404
667.8402,12.26414
668.3223,12.13282
668.8044,12.17229
669.2866,12.79192
669.7687,14.02341
670.2508,14.78026
670.7329,14.94446
671.215,14.96708
671.6971,15.46606
672.1793,16.21532
672.6614,16.69185
673.1435,16.63342
673.6256,16.54179
674.1077,16.91844
674.5898,17.51923
675.072,17.8722
675.5541,17.47103
676.0362,17.23589
676.5183,17.52235
677.0004,18.162
677.4825,18.45041
677.9647,18.09743
678.4468,17.96435
678.9289,18.46739
679.411,19.3793
679.8931,19.56403
680.3752,18.9866
680.8574,18.41761
681.3395,18.59674
681.8216,19.05305
682.3037,18.70416
682.7858,17.59523
683.2679,16.49996
683.7501,15.83938
684.2322,15.47231
684.7143,15.36182
685.1964,15.57905
685.6785,15.56116
686.1606,14.86277
686.6428,14.08658
687.1249,13.68476
687.607,13.95419
688.0891,13.90841
688.5712,13.46041
689.0533,12.83734
689.5355,12.21206
690.0176,11.59381
690.4997,11.39214
690.9818,11.80616
691.4639,12.30136
691.946,12.10258
692.4282,11.44366
692.9103,10.8194
693.3924,10.47493
693.8745,10.14017
694.3566,9.650112
694.8387,9.070734
695.3209,8.541084
695.803,7.885723
696.2851,7.491964
696.7672,7.555626
697.2493,7.979408
697.7314,8.144312
698.2136,8.011
698.6957,7.742641
699.1778,7.364794
699.6599,6.909752
700.142,6.551388
700.6241,6.285236
701.1063,6.003969
701.5884,5.690596
702.0705,5.372688
702.5526,5.126003
703.0347,4.937632
703.5168,4.712812
703.999,4.231449
704.4811,3.501995
704.9632,3.864604
705.4453,4.034535
705.9274,4.022336
706.4095,3.271716
706.8917,3.482861
707.3738,3.313641
707.856,3.132257
708.3381,3.489107
708.8202,2.864436
709.3023,3.220013
709.7844,3.189338
710.2665,3.340703
710.7487,3.109289
711.2308,3.000834
711.7129,3.282473
712.195,3.353713
712.6771,3.092257
713.1592,3.276598
713.6414,2.674486
714.1235,2.769269
714.6056,3.166774
715.0877,2.942775
715.5698,3.152208
716.0519,3.201546
716.5341,2.510535
717.0162,3.139738
717.4983,3.316711
717.9804,3.118376
718.4625,2.574247
718.9446,2.183521
719.4268,2.327621
719.9089,2.67519
720.391,2.83559
720.8731,2.823814
721.3552,2.709774
721.8373,2.456125
722.3195,2.173317
722.8016,1.87084
723.2837,1.55619
723.7658,1.442444
724.2479,1.715775
724.73,1.94384
725.2122,1.909483
725.6943,1.608624
726.1764,1.33357
726.6585,1.067717
727.1406,0.915989
727.6227,1.041426
728.1049,1.325653
728.587,1.490904
729.0691,1.514307
729.5512,1.47875
730.0333,1.372145
730.5154,0.920515
730.9976,1.360656
731.4797,1.604516
731.9618,1.662639
732.4439,0.9787247
732.926,1.252997
733.4081,1.143273
733.8903,1.0178
734.3724,1.426934
734.8545,0.8509482
735.3366,1.251603
735.8187,1.262401
736.3008,1.451628
736.783,1.254483
737.2651,1.176678
737.7472,1.485365
738.2293,1.234453
738.7114,1.298096
739.1935,1.276665
739.6757,1.042446
740.1578,0.85659
740.6399,0.842562
741.122,0.907209
741.6041,0.881603
742.0862,0.702896
742.5684,0.566999
743.0505,0.490335
743.5326,0.487268
744.0147,0.689581
744.4968,1.064775
744.9789,1.177855
745.4611,0.670574
745.9432,0.065029003
746.4253,0.159992
746.9074,0.71217
747.3895,1.092186
747.8716,0.945045
748.3538,0.644299
748.8359,0.249338
749.318,0.189381
749.8001,0.444038
750.2822,0.451174
750.7643,0.369118
751.2465,0.189699
751.7286,0.036215
752.2107,0.021097001
752.6928,0.369698
753.1749,0.595539
753.657,0.406099
754.1392,0.027849
754.6213,0.534796
755.1034,1.074156
755.5855,1.396406
756.0676,1.305847
756.5498,1.014439
757.0319,0.496649
757.514,0.249781
757.9962,0.526211
758.4783,0.121544
758.9604,0.629219
759.4425,0.39032
759.9246,0.562391
760.4067,0.866726
760.8889,0.459406
761.371,0.036339
761.8531,0.126972
762.3352,0.0042440002
762.8173,0.0098569999
763.2994,0.125475
763.7816,0.272411
764.2637,0.38936
764.7458,0.459555
765.2279,0.470457
765.71,0.420031
766.1921,0.302107
766.6743,0.019772001
767.1564,0.241154
767.6385,0.099003002
768.1206,0.476145
768.6027,0.722376
769.0848,0.590977
769.567,0.4032
770.0491,0.512226
770.5312,0.762936
771.0133,0.834545
771.4954,0.678244
771.9775,0.467104
772.4597,0.238865
772.9418,0.048719
773.4239,0.049245998
773.906,0.0049879998
774.3881,0.016214
774.8702,0.060729999
775.3524,0.138763
775.8345,0.137827
776.3166,0.050322998
776.7987,0.025630999
777.2808,0.082556002
777.7629,0.134272
778.2451,0.181156
778.7272,0.236544
779.2093,0.35597
779.6914,0.584665
780.1735,0.714083
780.6556,0.431759
781.1378,0.087853998
781.6199,0.031610001
782.102,0.579872
782.5841,0.983534
783.0662,1.214334
783.5483,1.331364
784.0305,1.38722
784.5126,1.381369
784.9947,1.332663
785.4768,1.240444
785.9589,1.121376
786.441,1.013382
786.9232,0.888676
787.4053,0.648928
787.8874,0.149172
788.3695,0.129473
788.8516,0.297964
789.3337,0.946754
789.8159,1.261053
790.298,0.975246
790.7801,0.734354
791.2622,0.506136
791.7443,0.393444
792.2264,0.624214
792.7086,1.172077
793.1907,1.520741
793.6728,1.569773
794.1549,1.483955
794.637,1.401209
795.1191,1.313797
795.6013,1.201468
796.0834,1.020159
796.5655,0.892422
797.0476,0.950693
797.5297,1.042759
798.0118,0.974247
798.494,0.637102
798.9761,0.379919
799.4582,0.220289
799.9403,0.157766
800.4224,0.194277
800.9045,0.326895
801.3867,0.557213
801.8688,0.911852
802.3509,1.261801
802.833,1.48735
803.3151,1.622839
803.7972,1.721106
804.2794,1.883453
804.7615,1.866028
805.2436,1.42308
805.7258,0.883564
806.2079,0.582544
806.69,0.543819
807.1721,0.683889
807.6542,1.057852
808.1364,1.438257
808.6185,1.410278
809.1006,1.131376
809.5827,1.102978
810.0648,1.518503
810.5469,1.844828
811.0291,1.493273
811.5112,0.961842
811.9933,0.826937
812.4754,1.746904
812.9575,2.123194
813.4396,1.531124
813.9218,0.721661
814.4039,0.637363
814.886,1.340641
815.3681,1.699947
815.8502,1.556618
816.3323,1.264917
816.8145,1.077127
817.2966,0.985802
817.7787,0.943398
818.2608,0.968292
818.7429,1.08181
819.225,1.42152
819.7072,1.741787
820.1893,1.79932
820.6714,1.41538
821.1535,1.1598
821.6356,1.045179
822.1177,1.028004
822.5999,1.081367
823.082,1.197563
823.5641,1.359549
824.0462,1.582781
824.5283,1.704012
825.0104,1.429779
825.4926,1.048857
825.9747,0.886774
826.4568,1.054438
826.9389,1.23192
827.421,1.436327
827.9031,1.553635
828.3853,1.413797
828.8674,0.843315
829.3495,1.015646
829.8316,2.116516
830.3137,3.171545
830.7958,3.002132
831.278,2.127895
831.7601,1.708416
832.2422,1.882935
832.7243,2.082878
833.2064,1.778244
833.6885,1.489889
834.1707,1.698473
834.6528,2.663704
835.1349,3.218103
835.617,3.251377
836.0991,3.058348
836.5812,2.789289
837.0634,2.448734
837.5455,2.056625
838.0276,1.606125
838.5097,1.300308
838.9918,1.366421
839.4739,1.606524
839.9561,1.848188
840.4382,2.075422
840.9203,2.222521
841.4024,2.117157
841.8845,2.078165
842.3666,2.293592
842.8488,2.755075
843.3309,3.017521
843.813,3.068752
844.2951,2.989935
844.7772,2.757221
845.2593,2.449724
845.7415,2.246271
846.2236,2.128992
846.7057,2.073326
847.1878,2.043303
847.6699,2.062948
848.152,2.14889
848.6342,2.300814
849.1163,2.517044
849.5984,2.947197
850.0805,3.207859
850.5626,3.10417
851.0447,2.722544
851.5269,2.492466
852.009,2.40424
852.4911,2.301687
852.9732,1.965342
853.4553,1.721157
853.9374,2.050684
854.4196,2.70225
854.9017,3.055651
855.3839,2.581625
855.866,2.214888
856.3481,2.171915
856.8302,2.328007
857.3123,2.417006
857.7944,2.436029
858.2766,2.439352
858.7587,2.435797
859.2408,2.410742
859.7229,2.377594
860.205,2.299023
860.6871,2.068743
861.1693,1.316345
861.6514,0.942677
862.1335,1.724619
862.6156,2.882927
863.0977,3.346365
863.5798,2.854034
864.062,2.420572
864.5441,2.113871
865.0262,1.87845
865.5083,1.573593
865.9904,1.297228
866.4725,1.419945
866.9547,2.083626
867.4368,2.707926
867.9189,2.920307
868.401,2.876841
868.8831,2.692991
869.3652,2.267836
869.8474,2.147793
870.3295,2.427227
870.8116,2.735474
871.2937,2.832186
871.7758,2.732025
872.2579,2.569809
872.7401,2.34811
873.2222,2.059414
873.7043,1.553946
874.1864,1.072548
874.6685,0.850254
875.1506,0.905691
875.6328,1.107897
876.1149,1.736744
876.597,2.157503
877.0791,2.041319
877.5612,1.46373
878.0433,1.20812
878.5255,1.273367
879.0076,1.379227
879.4897,1.393045
879.9718,1.332031
880.4539,1.13752
880.936,0.874197
881.4182,0.765427
881.9003,1.155312
882.3824,1.435511
882.8645,1.228001
883.3466,0.786234
883.8287,0.805891
884.3109,1.388926
884.793,1.875671
885.2751,2.117739
885.7572,2.133591
886.2393,1.765593
886.7214,1.211966
887.2036,0.959705
887.6857,1.442694
888.1678,1.812851
888.6499,1.53787
889.132,1.004822
889.6141,0.736633
890.0963,0.874842
890.5784,0.956266
891.0605,0.891743
891.5426,0.804247
892.0247,0.898907
892.5068,1.104523
892.989,1.138836
893.4711,0.944937
893.9532,0.879927
894.4353,1.413919
894.9174,2.040348
895.3995,2.312935
895.8817,2.118835
896.3638,1.811146
896.8459,1.307613
897.328,0.87211
897.8101,0.697147
898.2922,0.740601
898.7744,0.822622
899.2565,0.933985
899.7386,0.977785
900.2207,0.709877
900.7028,0.504944
901.1849,0.3377095
901.6671,0.9362541
902.1492,1.305869
902.6313,1.458891
903.1134,0.7465659
903.5955,1.151658
904.0776,1.108931
904.5598,1.04787
905.0419,1.610225
905.524,1.023764
906.0062,1.576262
906.4883,0.24527
906.9704,0.457155
907.4525,0.700587
907.9346,0.651943
908.4167,0.052492
908.8989,0.439479
909.381,0.782086
909.8631,1.001499
910.3452,1.121975
910.8273,1.144888
911.3094,1.071953
911.7916,0.892866
912.2737,0.71343
912.7558,0.581415
913.2379,0.516068
913.72,0.583287
914.2021,0.869992
914.6843,0.929044
915.1664,0.437963
915.6485,0.087231003
916.1306,0.347529
916.6127,1.161543
917.0948,1.514594
917.577,1.408954
918.0591,1.247551
918.5412,1.278234
919.0233,1.393447
919.5054,1.610043
919.9875,1.840655
920.4697,1.747845
920.9518,0.726741
921.4339,0.009722
921.916,0.048755001
922.3981,0.30942
922.8802,0.511437
923.3624,0.558319
923.8445,0.519022
924.3266,0.383718
924.8087,0.250828
925.2908,0.287883
925.7729,0.358221
926.2551,0.223022
926.7372,0.51593
927.2193,0.835261
927.7014,0.428878
928.1835,0.196382
928.6656,0.623322
929.1478,0.852106
929.6299,0.856711
930.112,0.617943
930.5941,0.465281
931.0762,0.864215
931.5583,1.384892
932.0405,1.483545
932.5226,1.119975
933.0047,0.957398
933.4868,1.532699
933.9689,1.834283
934.451,1.340068
934.9332,0.294177
935.4153,0.047621999
935.8974,0.563194
936.3795,1.083669
936.8616,1.263836
937.3438,1.283394
937.8259,1.286345
938.308,1.27008
938.7901,1.229803
939.2722,1.204191
939.7543,1.078211
940.2365,0.747533
940.7186,0.422007
941.2007,0.492765
941.6828,0.908711
942.1649,1.030071
942.647,0.746312
943.1292,0.369934
943.6113,0.041418999
944.0934,0.146243
944.5755,0.066505998
945.0576,0.351328
945.5397,0.745143
946.0219,1.24528
946.504,1.4507
946.9861,1.003632
947.4682,0.066965997
947.9503,0.302903
948.4324,0.162575
948.9146,0.029333999
949.3967,0.045609001
949.8788,0.121778
950.3609,0.103976
950.843,0.48961
951.3251,0.578112
951.8073,0.048085999
952.2894,0.226398
952.7715,0.095990002
953.2536,0.305569
953.7357,0.911287
954.2179,1.619549
954.7,1.979475
955.1821,1.837485
955.6642,1.62495
956.1464,1.722178
956.6285,1.835393
957.1106,1.655962
957.5927,1.064487
958.0748,0.647807
958.5569,0.431732
959.0391,0.319106
959.5212,0.215577
960.0033,0.169212
960.4854,0.403183
960.9675,0.864172
961.4496,1.243659
961.9318,1.312922
962.4139,1.330014
962.896,1.471034
963.3781,1.654294
963.8602,1.61166
964.3423,1.275695
964.8245,0.994418
965.3066,0.877994
965.7887,0.836779
966.2708,0.669591
966.7529,0.486863
967.235,0.646124
967.7172,1.421552
968.1993,1.84415
968.6814,1.148716
969.1635,0.30199
969.6456,0.024691001
970.1277,0.214031
970.6099,0.503176
971.092,0.866961
971.5741,0.284217
972.0562,0.274841
972.5383,0.636821
973.0204,0.812464
973.5026,0.240007
973.9847,0.631854
974.4668,1.123469
974.9489,0.741218
975.431,0.640969
975.9131,0.681046
976.3953,0.821548
976.8774,1.238553
977.3595,1.458665
977.8416,1.492452
978.3237,0.782016
978.8058,1.032476
979.288,0.890116
979.7701,0.728196
980.2522,1.443874
980.7343,1.77757
981.2164,0.912803
981.6985,0.024506999
982.1807,0.118579
982.6628,0.311047
983.1449,0.568339
983.627,0.679983
984.1091,0.810379
984.5912,1.236783
985.0734,1.46525
985.5555,0.974386
986.0376,0.157441
986.5197,0.072105996
987.0018,1.077053
987.4839,1.565724
987.9661,1.192768
988.4482,0.516554
988.9303,0.044801001
989.4124,0.462844
989.8945,0.773605
990.3766,0.898063
990.8588,0.278329
991.3409,0.619492
991.823,0.575524
992.3051,0.515735
992.7872,0.990269
993.2693,0.471635
993.7515,0.939363
994.2336,1.016105
994.7157,1.591548
995.1978,2.136553
995.6799,1.73737
996.162,0.808071
996.6442,0.318504
997.1263,1.08088
997.6084,1.535082
998.0905,1.459859
998.5726,1.11932
999.0547,0.738885
999.5369,0.364012
1000.019,0.342672
1000.501,0.731182
1000.983,1.15833
1001.465,1.440984
1001.947,1.577219
1002.43,1.530992
1002.912,1.308873
1003.394,1.211969
1003.876,1.300899
1004.358,1.291858
1004.84,0.986954
1005.322,0.61854
1005.804,0.736733
1006.287,1.176719
1006.769,1.457921
1007.251,1.257314
1007.733,1.051612
1008.215,1.047316
1008.697,1.08084
1009.179,0.97219
1009.661,0.68523
1010.143,0.636291
1010.626,0.882541
1011.108,1.126081
1011.59,1.076355
1012.072,0.916595
1012.554,0.815148
1013.036,0.777272
1013.518,0.755279
1014.0,0.714246
1014.483,0.745344
1014.965,0.918777
1015.447,1.116623
1015.929,1.092242
1016.411,0.412282
1016.893,0.793726
1017.375,0.977434
1017.857,0.974319
1018.339,0.229078
1018.822,0.445357
1019.304,0.27673
1019.786,0.092321001
1020.268,0.444054
1020.75,0.192133
1021.232,1.640736
1021.714,1.827841
1022.196,1.35203
1022.679,0.735687
1023.161,0.114226
1023.643,0.11396
1024.125,0.65374
1024.607,1.203201
1025.089,1.285059
1025.571,1.13048
1026.053,1.006544
1026.535,0.924784
1027.018,1.050462
1027.5,1.422733
1027.982,1.5807
1028.464,0.678794
1028.946,0.206721
1029.428,0.018825
1029.91,1.30881
1030.392,1.796058
1030.875,1.185675
1031.357,0.68183
1031.839,0.748149
1032.321,1.100627
1032.803,1.357127
1033.285,1.491548
1033.767,1.425159
1034.249,0.997632
1034.731,0.643968
1035.214,0.468835
1035.696,0.405065
1036.178,0.413778
1036.66,0.494775
1037.142,0.668519
1037.624,0.927101
1038.106,1.135306
1038.588,1.082408
1039.071,1.052417
1039.553,1.348232
1040.035,1.843265
1040.517,2.129419
1040.999,2.134729
1041.481,2.040941
1041.963,1.83708
1042.445,1.645283
1042.927,1.761566
1043.41,1.963963
1043.892,1.73335
1044.374,0.940858
1044.856,0.33028
1045.338,0.258342
1045.82,0.358633
1046.302,0.517929
1046.784,0.71152
1047.266,0.792849
1047.749,0.774765
1048.231,0.837876
1048.713,1.165451
1049.195,1.399446
1049.677,1.157163
1050.159,0.693638
1050.641,0.344861
1051.123,0.106427
1051.606,0.097735003
1052.088,0.379462
1052.57,0.670672
1053.052,0.652361
1053.534,0.542749
1054.016,0.882966
1054.498,1.559178
1054.98,1.972365
1055.463,1.67625
1055.945,1.315345
1056.427,0.991444
1056.909,0.737362
1057.391,0.623468
1057.873,0.654408
1058.355,0.754161
1058.837,0.939365
1059.319,1.074191
1059.802,1.03051
1060.284,0.90751
1060.766,0.705333
1061.248,0.448094
1061.73,0.514176
1062.212,0.995708
1062.694,1.374626
1063.176,1.423859
1063.658,1.330294
1064.141,1.330507
1064.623,1.403512
1065.105,1.544589
1065.587,1.952979
1066.069,1.929037
1066.551,1.176204
1067.033,0.371187
1067.515,0.012503
1067.998,0.036961999
1068.48,0.055411998
1068.962,0.238643
1069.444,0.366661
1069.926,0.228767
1070.408,0.160441
1070.89,0.457014
1071.372,0.858422
1071.854,0.944175
1072.337,0.674975
1072.819,0.456429
1073.301,0.323685
1073.783,0.301112
1074.265,0.581582
1074.747,0.863149
1075.229,0.759727
1075.711,0.288003
1076.193,0.063602999
1076.676,0.239299
1077.158,0.347277
1077.64,0.231897
1078.122,0.071912996
1078.604,0.161858
1079.086,0.452655
1079.568,0.860611
1080.051,1.45667
1080.533,1.82172
1081.015,1.593642
1081.497,1.317245
1081.979,1.307035
1082.461,1.487687
1082.943,1.276577
1083.425,0.743616
1083.907,0.434163
1084.39,0.776811
1084.872,1.176916
1085.354,1.335112
1085.836,1.282906
1086.318,1.056708
1086.8,0.541484
1087.282,0.410618
1087.764,0.715127
1088.246,1.042511
1088.729,1.004684
1089.211,0.853743
1089.693,0.952215
1090.175,1.232633
1090.657,1.398792
1091.139,1.402751
1091.621,1.246833
1092.103,0.83334
1092.586,0.466269
1093.068,0.725423
1093.55,1.305829
1094.032,1.450896
1094.514,1.070857
1094.996,0.719671
1095.478,0.597244
1095.96,0.614932
1096.443,0.780018
1096.925,1.029432
1097.407,1.210373
1097.889,1.316135
1098.371,1.274933
1098.853,1.028697
1099.335,0.776953
1099.817,0.200022
1100.299,0.036819998
1100.781,0.557884
1101.264,0.882244
1101.746,1.020187
1102.228,0.413987
1102.71,0.768719
1103.192,0.738795
1103.674,0.714602
1104.156,1.205538
1104.638,0.707611
1105.121,1.189267
1105.603,1.280718
1106.085,1.124906
1106.567,1.002612
1107.049,0.764368
1107.531,0.584474
1108.013,0.465828
1108.495,0.43771
1108.978,0.475503
1109.46,0.482444
1109.942,0.433441
1110.424,0.324321
1110.906,0.112207
1111.388,0.094800003
1111.87,0.256286
1112.352,0.30585
1112.834,0.241098
1113.317,1.392255
1113.799,2.052303
1114.281,1.002337
1114.763,0.079209998
1115.245,0.373958
1115.727,0.101695
1116.209,0.309859
1116.691,0.852982
1117.173,1.1574
1117.656,1.134181
1118.138,0.921535
1118.62,0.452712
1119.102,0.014021
1119.584,0.245621
1120.066,0.238944
1120.548,0.148534
1121.03,0.030791
1121.513,0.26661
1121.995,0.567823
1122.477,0.886123
1122.959,1.358294
1123.441,1.751685
1123.923,1.66345
1124.405,0.693358
1124.887,0.293558
1125.37,0.700246
1125.852,1.065714
1126.334,0.764568
1126.816,0.179925
1127.298,0.122028
1127.78,0.433675
1128.262,0.737457
1128.744,0.975062
1129.226,1.089467
1129.709,1.062738
1130.191,0.949477
1130.673,0.710189
1131.155,0.45174
1131.637,0.603171
1132.119,1.060608
1132.601,1.256697
1133.083,0.547122
1133.566,0.033174999
1134.048,0.074876003
1134.53,0.131856
1135.012,0.222374
1135.494,0.209001
1135.976,0.288013
1136.458,0.0090899998
1136.94,0.504561
1137.422,0.802046
1137.905,0.913306
1138.387,0.280285
1138.869,0.608182
1139.351,0.550932
1139.833,0.477869
1140.315,0.940902
1140.797,0.41597
1141.279,1.039852
1141.761,0.62531
1142.244,0.115994
1142.726,0.096463002
1143.208,0.0051130001
1143.69,0.22443
1144.172,0.597796
1144.654,0.885293
1145.136,1.043764
1145.618,0.994449
1146.101,0.064437002
1146.583,0.473102
1147.065,0.813737
1147.547,0.968098
1148.029,0.378266
1148.511,0.750141
1148.993,0.738197
1149.475,0.710988
1149.958,1.217387
1150.44,1.399917
1150.922,1.502125
1151.404,1.356284
1151.886,0.785811
1152.368,0.397476
1152.85,0.246337
1153.332,0.241379
1153.814,0.39621
1154.297,0.619084
1154.779,0.615128
1155.261,0.482735
1155.743,0.496321
1156.225,0.990004
1156.707,1.298747
1157.189,1.405651
1157.671,0.474411
1158.153,0.947686
1158.636,1.224105
1159.118,1.31417
1159.6,0.660017
1160.082,0.966757
1160.564,0.3933
1161.046,0.238829
1161.528,0.28791
1162.01,1.094392
1162.493,1.036948
1162.975,0.298403
1163.457,0.180062
1163.939,0.706083
1164.421,1.263731
1164.903,1.667102
1165.385,1.815543
1165.867,1.526214
1166.349,1.047753
1166.832,0.790543
1167.314,0.732411
1167.796,0.541107
1168.278,0.174732
1168.76,0.0298
1169.242,0.64119
1169.724,1.294763
1170.206,1.630938
1170.688,1.690178
1171.171,1.368017
1171.653,0.671668
1172.135,0.321597
1172.617,0.478706
1173.099,0.735079
1173.581,0.894632
1174.063,0.966176
1174.545,0.914538
1175.028,0.777605
1175.51,0.703508
1175.992,0.689321
1176.474,0.755627
1176.956,0.946152
1177.438,1.042076
1177.92,0.77018
1178.402,0.391658
1178.885,0.101916
1179.367,0.089074001
1179.849,0.017527999
1180.331,0.341498
1180.813,0.645983
1181.295,0.79324
1181.777,0.802158
1182.259,0.56341
1182.741,0.276863
1183.224,0.201438
1183.706,0.385977
1184.188,0.376019
1184.67,0.122073
1185.152,0.047251001
1185.634,0.43747
1186.116,0.921802
1186.598,1.210183
1187.081,1.264383
1187.563,0.939566
1188.045,0.043706998
1188.527,0.377274
1189.009,0.264224
1189.491,0.016224001
1189.973,0.281333
1190.455,0.526628
1190.938,0.856918
1191.42,1.162445
1191.902,1.267327
1192.384,1.131458
1192.866,0.780345
1193.348,0.108693
1193.83,0.270205
1194.312,0.333268
1194.794,1.211304
1195.276,1.361945
1195.759,1.097004
1196.241,1.070495
1196.723,1.649484
1197.205,1.811115
1197.687,1.474063
1198.169,1.027877
1198.651,0.711546
1199.133,0.511969
1199.616,0.417846
1200.098,0.427871
1200.58,0.551409
1201.062,0.883046
1201.544,1.166137
1202.026,1.406291
1202.508,1.513201
1202.99,1.303605
1203.473,0.987739
1203.955,0.847521
1204.437,0.850596
1204.919,0.790483
1205.401,0.601264
1205.883,0.404609
1206.365,0.164274
1206.847,0.116743
1207.329,0.713827
1207.812,1.454817
1208.294,1.660254
1208.776,1.414237
1209.258,1.168254
1209.74,0.955027
1210.222,0.820155
1210.704,0.780016
1211.186,0.76565
1211.668,0.73112
1212.151,0.663255
1212.633,0.508592
1213.115,0.293392
1213.597,0.170393
1214.079,0.1276
1214.561,0.248392
1215.043,0.571289
1215.525,0.9473
1216.008,1.382423
1216.49,1.662589
1216.972,1.386076
1217.454,0.638608
1217.936,0.184103
1218.418,0.098513998
1218.9,0.176209
1219.382,0.460354
1219.865,0.789218
1220.347,1.068747
1220.829,1.260662
1221.311,1.308759
1221.793,1.236746
1222.275,1.099742
1222.757,0.862638
1223.239,0.738422
1223.721,0.763175
1224.203,0.925534
1224.686,1.369152
1225.168,1.829967
1225.65,2.072401
1226.132,2.055943
1226.614,1.771456
1227.096,1.156684
1227.578,0.671224
1228.061,0.413217
1228.543,0.313018
1229.025,0.408205
1229.507,0.5425
1229.989,0.55174
1230.471,0.441983
1230.953,0.376195
1231.435,0.360113
1231.917,0.310325
1232.4,0.184471
1232.882,0.138307
1233.364,0.500549
1233.846,0.866101
1234.328,0.72894
1234.81,0.214908
1235.292,0.285062
1235.774,0.980533
1236.256,1.2262
1236.739,0.656932
1237.221,0.133531
1237.703,0.602652
1238.185,1.272039
1238.667,1.468549
1239.149,1.288529
1239.631,1.119528
1240.113,0.969538
1240.596,1.06104
1241.078,1.516471
1241.56,1.832952
1242.042,1.337606
1242.524,0.852398
1243.006,1.084316
1243.488,1.764512
1243.97,1.759791
1244.453,1.165804
1244.935,0.812212
1245.417,0.902943
1245.899,0.924076
1246.381,0.323134
1246.863,0.194669
1247.345,0.218683
1247.827,0.120356
1248.309,0.511647
1248.792,0.940001
1249.274,1.052744
1249.756,0.719319
1250.238,0.411777
1250.72,0.283948
1251.202,0.346265
1251.684,0.711043
1252.166,1.166515
1252.648,1.036825
1253.131,0.550756
1253.613,0.445711
1254.095,0.954494
1254.577,1.290229
1255.059,1.11752
1255.541,0.872866
1256.023,0.677214
1256.505,0.541059
1256.988,0.50353
1257.47,0.536857
1257.952,0.529779
1258.434,0.423738
1258.916,0.722546
1259.398,1.887686
1259.88,2.492867
1260.362,1.891331
1260.844,0.822356
1261.327,0.356586
1261.809,0.287739
1262.291,0.373138
1262.773,0.600711
1263.255,0.561639
1263.737,0.087563999
1264.219,0.072624996
1264.701,0.430202
1265.183,1.029039
1265.666,0.847725
1266.148,0.460866
1266.63,0.601569
1267.112,1.35957
1267.594,1.871243
1268.076,2.156031
1268.558,2.103453
1269.04,1.594066
1269.523,1.10742
1270.005,1.180077
1270.487,1.432458
1270.969,1.554806
1271.451,1.527002
1271.933,1.142181
1272.415,0.412918
1272.897,0.117342
1273.38,0.505842
1273.862,0.988497
1274.344,1.195264
1274.826,1.208212
1275.308,1.243401
1275.79,1.2672
1276.272,1.435671
1276.754,1.683885
1277.236,1.6525
1277.719,1.238942
1278.201,0.745156
1278.683,0.05384
1279.165,0.315468
1279.647,0.109003
1280.129,0.462007
1280.611,1.160847
1281.093,1.822595
1281.576,1.894482
1282.058,1.256125
1282.54,0.757555
1283.022,0.524198
1283.504,0.687134
1283.986,1.512305
1284.468,2.41788
1284.95,2.536008
1285.432,2.166512
1285.915,1.699216
1286.397,1.192807
1286.879,0.85706
1287.361,0.641529
1287.843,0.848928
1288.325,1.712603
1288.807,2.476369
1289.289,2.044415
1289.771,1.230664
1290.254,0.869903
1290.736,0.833574
1291.218,0.874186
1291.7,0.97681
1292.182,1.189361
1292.664,1.552818
1293.146,1.786211
1293.628,1.551373
1294.111,1.184657
1294.593,0.858077
1295.075,0.598365
1295.557,0.464204
1296.039,0.44797
1296.521,0.529787
1297.003,0.712764
1297.485,0.796089
1297.968,0.570902
1298.45,0.322423
1298.932,0.077661999
1299.414,0.031734001
1299.896,0.34616
1300.378,0.993436
1300.86,0.873748
1301.342,0.444614
1301.824,0.0
