Wavenumber (cm⁻¹),Intensity
200.0,593.2417897636934
201.00097751710655,575.1544919414746
202.0019550342131,557.0671941192559
203.00293255131965,538.979896297037
204.0039100684262,545.2185396385789
205.00488758553274,552.4609673514781
206.0058651026393,561.812396437204
207.00684261974584,574.4065344626803
208.0078201368524,587.0006724881566
209.00879765395894,595.2839477114454
210.00977517106548,602.6710277421196
211.01075268817203,608.5931221040116
212.01173020527858,610.3800392050204
213.01270772238513,612.1669563060291
214.01368523949168,616.0336325336583
215.01466275659823,620.8116937116084
216.01564027370478,625.5565172102616
217.01661779081132,630.0771495795032
218.01759530791787,634.5977819487447
219.01857282502445,641.2263888386027
220.019550342131,649.4923830855294
221.02052785923755,657.7583773324561
222.0215053763441,664.7641082865439
223.02248289345064,671.7654524857787
224.0234604105572,676.5468647510037
225.02443792766374,678.3896523582422
226.0254154447703,680.2324399654806
227.02639296187684,680.5095427226034
228.02737047898339,680.5402964679415
229.02834799608993,679.9946207254867
230.02932551319648,678.0901176016027
231.03030303030303,676.1856144777187
232.03128054740958,673.9704822102283
233.03225806451613,671.6413702530112
234.03323558162268,670.2124551633167
235.03421309872923,673.3300362120506
236.03519061583577,676.4476172607845
237.03616813294232,682.0601306835911
238.03714565004887,689.3423005706453
239.03812316715542,696.5612052949282
240.03910068426197,701.9140365154706
241.04007820136852,707.2668677360128
242.04105571847506,712.6379235913479
243.0420332355816,718.029813213197
244.0430107526882,723.4217028350464
245.04398826979474,721.8087375665167
246.0449657869013,719.4201195065913
247.04594330400784,717.276397324579
248.04692082111438,715.6209635841378
249.04789833822093,713.9655298436966
250.04887585532748,724.3844100392089
251.04985337243403,738.4543164855553
252.05083088954058,747.5087004703755
253.05180840664713,736.6918618477645
254.05278592375367,725.8750232251533
255.05376344086022,715.052948914919
256.05474095796677,704.2278682622419
257.0557184750733,694.8363470116631
258.05669599217987,704.7721516275773
259.0576735092864,714.7079562434916
260.05865102639297,709.9732504478471
261.0596285434995,690.7290826120376
262.06060606060606,671.484914776228
263.0615835777126,674.015559368377
264.06256109481916,678.0209696561433
265.0635386119257,680.1248587142933
266.06451612903226,678.9948623339378
267.0654936461388,677.8648659535822
268.06647116324535,670.7513651492317
269.0674486803519,662.1790625886025
270.06842619745845,656.2189665596117
271.069403714565,658.6318414127634
272.07038123167155,661.0447162659151
273.0713587487781,656.1442493383606
274.07233626588464,647.6661096644967
275.0733137829912,641.7778910648502
276.07429130009774,657.8928614455643
277.0752688172043,674.0078318262783
278.07624633431084,676.8483681923987
279.0772238514174,668.3363340770212
280.07820136852393,659.8242999616439
281.0791788856305,652.228324422103
282.08015640273703,644.6580320372874
283.0811339198436,641.8679437266561
284.08211143695013,646.0560144865957
285.0830889540567,650.2440852465353
286.0840664711632,654.7861388050335
287.0850439882698,659.3954947248839
288.0860215053764,666.4825329375634
289.0869990224829,680.1327559460207
290.0879765395895,693.7829789544779
291.088954056696,703.9047736714767
292.0899315738026,712.5696664992531
293.0909090909091,720.2203310393302
294.09188660801567,721.7160533944847
295.0928641251222,723.2117757496391
296.09384164222877,730.6195725551561
297.0948191593353,742.3921716942955
298.09579667644186,754.2496504200151
299.0967741935484,775.4660211982508
300.09775171065496,796.6823919764864
301.0987292277615,819.2846287675854
302.09970674486806,843.6315100914828
303.1006842619746,867.9783914153801
304.10166177908116,898.0096356625969
305.1026392961877,928.8417772531039
306.10361681329425,960.130313426805
307.1045943304008,992.43368200776
308.10557184750735,1024.737050588715
309.1065493646139,1075.979325587979
310.10752688172045,1133.7374584481097
311.108504398827,1192.9369923053857
312.10948191593354,1258.805155051178
313.1104594330401,1324.6733177969702
314.11143695014664,1386.3472345650512
315.1124144672532,1445.3557691071912
316.11339198435974,1503.1745498835753
317.1143695014663,1535.8888783481975
318.11534701857283,1568.6032068128195
319.1163245356794,1589.7879730496625
320.11730205278593,1598.4300404737976
321.1182795698925,1607.0721078979325
322.119257086999,1584.392694610109
323.1202346041056,1558.7198112268952
324.1212121212121,1537.684456164361
325.1221896383187,1525.396518981185
326.1231671554252,1513.1085817980088
327.12414467253177,1497.528060796948
328.1251221896383,1481.0203875464251
329.12609970674487,1463.4995850382918
330.1270772238514,1442.2574533508161
331.12805474095796,1421.0153216633403
332.1290322580645,1402.0758025180305
333.13000977517106,1384.3887359328164
334.1309872922776,1366.289377423807
335.13196480938416,1343.5439869908105
336.1329423264907,1320.798596557814
337.13391984359725,1291.929635270924
338.1348973607038,1257.298805824371
339.13587487781035,1222.6679763778175
340.1368523949169,1193.64068822255
341.13782991202345,1164.915006648205
342.13880742913,1136.7688436288513
343.13978494623655,1109.557319703732
344.1407624633431,1082.3457957786127
345.14173998044964,1063.9132706422329
346.1427174975562,1047.454500645524
347.14369501466274,1029.844397637158
348.1446725317693,1008.7830661201103
349.14565004887584,987.7217346030627
350.1466275659824,992.455448096047
351.14760508308893,1009.1084322021851
352.1485826001955,1027.1253529262774
353.14956011730203,1055.369776574969
354.1505376344086,1083.6142002236602
355.1515151515151,1105.8065664583391
356.1524926686217,1123.07670183426
357.1534701857282,1140.3468372101809
358.1544477028348,1155.8055064905427
359.1554252199413,1171.2369347139315
360.15640273704787,1186.3209708998693
361.1573802541544,1200.9232876549875
362.15835777126097,1215.5256044101059
363.1593352883675,1229.458363800077
364.16031280547406,1243.2754618559109
365.1612903225806,1253.2415523215584
366.16226783968716,1253.612880805247
367.1632453567937,1253.9842092889355
368.16422287390026,1240.651986937875
369.1652003910068,1221.9963892596834
370.16617790811335,1204.0466417667635
371.1671554252199,1189.976647401558
372.16813294232645,1175.9066530363525
373.169110459433,1177.1213266334591
374.17008797653955,1189.0573444704823
375.1710654936461,1200.831391754547
376.1720430107527,1205.2144091985547
377.17302052785925,1209.5974266425621
378.1739980449658,1201.1281766366021
379.17497556207235,1177.2739553492124
380.1759530791789,1153.4197340618227
381.17693059628544,1117.262476590254
382.177908113392,1079.56847201836
383.17888563049854,1046.3917310462216
384.1798631476051,1022.6973564121051
385.18084066471164,999.0029817779888
386.1818181818182,976.9112745328194
387.18279569892474,955.3357686067341
388.1837732160313,933.584284952705
389.18475073313783,911.0834926189234
390.1857282502444,888.5827002851418
391.18670576735093,863.3549245554871
392.1876832844575,836.4832373293003
393.188660801564,810.4185397100379
394.1896383186706,797.5559961509327
395.1906158357771,784.6934525918277
396.1915933528837,778.6893544220738
397.1925708699902,779.7833922983501
398.19354838709677,780.8774301746265
399.1945259042033,787.5617340846061
400.19550342130987,794.6985085506279
401.1964809384164,794.511685852883
402.19745845552296,781.2444941703328
403.1984359726295,767.9773024877827
404.19941348973606,762.1693789341506
405.2003910068426,758.3128662830349
406.20136852394916,755.5495417633452
407.2023460410557,756.520592827122
408.20332355816225,757.4916438908986
409.20430107526886,752.9297824447126
410.2052785923754,745.5196107262217
411.20625610948196,737.147038670532
412.2072336265885,719.4837699974796
413.20821114369505,701.8205013244273
414.2091886608016,684.7261035596197
415.21016617790815,668.1409098842863
416.2111436950147,651.555716208953
417.21212121212125,642.7437765912007
418.2130987292278,634.2440874733783
419.21407624633434,623.3770157538628
420.2150537634409,608.8868335752387
421.21603128054744,594.3966513966147
422.217008797654,590.6301711923284
423.21798631476054,589.0772805150287
424.2189638318671,586.092130896921
425.21994134897363,579.0852415152717
426.2209188660802,572.0783521336223
427.22189638318673,568.9367113160467
428.2228739002933,567.4800256135206
429.2238514173998,566.505973435956
430.2248289345064,568.758309233022
431.2258064516129,571.0106450300881
432.2267839687195,569.4042056600488
433.227761485826,564.8127127874146
434.22873900293257,560.2212199147805
435.2297165200391,560.6435527442594
436.23069403714567,561.0777396013274
437.2316715542522,560.7548770338477
438.23264907135876,559.4339935398293
439.2336265884653,558.1131100458109
440.23460410557186,558.4869191690267
441.2355816226784,559.1248591925224
442.23655913978496,561.0129182741282
443.2375366568915,565.8337192049462
444.23851417399806,570.6545201357642
445.2394916911046,573.0174112493987
446.24046920821115,574.4830501131681
447.2414467253177,576.0592513900469
448.24242424242425,578.1893913993564
449.2434017595308,580.3195314086657
450.24437927663735,582.1629212055369
451.2453567937439,583.8152180016045
452.24633431085044,585.1446929340583
453.247311827957,577.2745500692178
454.24828934506354,569.4044072043773
455.2492668621701,562.0726248249426
456.25024437927664,555.3537848733042
457.2512218963832,548.6349449216659
458.25219941348973,548.8233254326815
459.2531769305963,549.7670997811834
460.25415444770283,552.1689335204961
461.2551319648094,557.4634764422037
462.2561094819159,562.7580193639113
463.2570869990225,571.0183645682882
464.258064516129,580.1704329015556
465.2590420332356,587.9965190169956
466.2600195503421,590.6051783390413
467.26099706744867,593.213837661087
468.2619745845552,589.6342943494268
469.26295210166177,582.5184656654644
470.2639296187683,575.244085375007
471.26490713587486,565.8652101182836
472.2658846529814,556.4863348615602
473.26686217008796,548.6285346581171
474.2678396871945,542.2684463375743
475.26881720430106,535.9083580170316
476.2697947214076,530.7246871512436
477.27077223851416,525.6193394233544
478.2717497556207,522.5529536609049
479.27272727272725,522.9392147791773
480.2737047898338,523.3254758974497
481.27468230694035,527.2622971648533
482.2756598240469,532.058669848806
483.27663734115345,535.3278435192827
484.27761485826,533.7290150632791
485.27859237536654,532.1301866072755
486.2795698924731,533.1502228010652
487.28054740957964,535.4449660970362
488.2815249266862,537.4814023246668
489.2825024437928,537.3466436611893
490.28347996089934,537.2118849977119
491.2844574780059,534.8288299025133
492.28543499511244,530.5307874597687
493.286412512219,526.232745017024
494.28739002932554,536.0388720324294
495.2883675464321,546.2239039958079
496.28934506353863,558.0029435383376
497.2903225806452,572.0992025061255
498.29130009775173,586.1954614739134
499.2922776148583,601.4234250527644
500.2932551319648,616.8647813630774
501.2942326490714,634.139984094288
502.2952101661779,656.2483268420456
503.2961876832845,678.3566695898031
504.297165200391,695.6496360336322
505.29814271749757,710.9640114183911
506.2991202346041,727.9807795219327
507.30009775171067,755.2349954031309
508.3010752688172,782.4892112843293
509.30205278592376,785.5325658064637
510.3030303030303,770.7751480758099
511.30400782013686,756.20005850966
512.3049853372434,759.4986005144315
513.3059628543499,762.797142519203
514.3069403714564,759.8888831911439
515.307917888563,749.2020492902053
516.3088954056695,738.5152153892667
517.3098729227761,735.2520337876252
518.3108504398826,733.0250565759476
519.3118279569892,744.0535887344827
520.3128054740957,784.4045207244376
521.3137829912023,824.7554527143925
522.3147605083088,850.9094015963822
523.3157380254154,872.2048047087893
524.3167155425219,891.8484717817126
525.3176930596285,903.9029189860277
526.318670576735,915.9573661903426
527.3196480938416,909.0968214369777
528.3206256109481,890.272135400799
529.3216031280547,872.8601938880139
530.3225806451612,884.5761120128128
531.3235581622678,896.2920301376116
532.3245356793743,896.3517169092598
533.3255131964809,883.7821249864041
534.3264907135874,871.2125330635484
535.327468230694,861.2394679474304
536.3284457478005,851.5114144850685
537.3294232649071,835.4516178509748
538.3304007820136,807.5018604416699
539.3313782991202,779.552103032365
540.3323558162267,772.9355186464973
541.3333333333333,772.2907516508358
542.3343108504398,770.2684488465046
543.3352883675464,763.2165589261875
544.3362658846529,756.1646690058705
545.3372434017595,763.0852764048032
546.338220918866,777.5689901052335
547.3391984359725,791.8796715292974
548.3401759530791,804.2664760529707
549.3411534701856,816.6532805766439
550.3421309872922,823.320457749439
551.3431085043987,824.627573759641
552.3440860215054,825.9346897698431
553.345063538612,820.2062413138938
554.3460410557185,814.1077717628972
555.347018572825,805.5057709820064
556.3479960899316,792.8833303143115
557.3489736070381,780.2608896466165
558.3499511241447,759.3618541236169
559.3509286412512,736.6157817727386
560.3519061583578,714.9564680132688
561.3528836754643,696.535621428731
562.3538611925709,678.1147748441932
563.3548387096774,657.7759341429273
564.355816226784,636.5553783372338
565.3567937438905,617.6261824012186
566.3577712609971,615.6967990163304
567.3587487781036,613.7674156314422
568.3597262952102,613.8355207796121
569.3607038123167,615.5215913606321
570.3616813294233,617.2076619416522
571.3626588465298,616.6055585885358
572.3636363636364,615.9716594155743
573.3646138807429,612.7906476593206
574.3655913978495,606.0922426596021
575.366568914956,599.3938376598837
576.3675464320626,588.1125073434383
577.3685239491691,576.0464964747632
578.3695014662757,568.8655827452794
579.3704789833822,573.7900079174257
580.3714565004888,578.7144330895719
581.3724340175953,574.8738935144845
582.3734115347019,567.6455007886245
583.3743890518084,561.1280894818794
584.375366568915,558.4855641694834
585.3763440860215,555.8430388570874
586.377321603128,562.198292207374
587.3782991202346,574.8387195263439
588.3792766373411,587.1276818084569
589.3802541544477,584.1159190509873
590.3812316715542,581.1041562935176
591.3822091886608,576.4900179125066
592.3831867057673,569.9663004737047
593.3841642228739,563.4425830349027
594.3851417399804,558.6593708807158
595.386119257087,554.0913393736743
596.3870967741935,550.895874299966
597.3880742913001,550.5683422359245
598.3890518084066,550.2408101718831
599.3900293255132,557.9997084784021
600.3910068426197,568.3474889118035
601.3919843597263,577.0078878031863
602.3929618768328,578.5303337695659
603.3939393939394,580.0527797359455
604.3949169110459,581.524684680075
605.3958944281525,582.9662528539111
606.396871945259,584.2408590093439
607.3978494623656,582.8388046708392
608.3988269794721,581.4367503323344
609.3998044965787,587.9043188485238
610.4007820136852,602.4836880927486
611.4017595307918,617.0630573369734
612.4027370478983,611.9421536288394
613.4037145650049,605.2499562718384
614.4046920821114,601.1195885781509
615.405669599218,601.544766325831
616.4066471163245,601.969944073511
617.4076246334312,605.142989982806
618.4086021505377,609.0304901887782
619.4095796676443,615.2857376558953
620.4105571847508,629.5828708305
621.4115347018574,643.8800040051048
622.4125122189639,651.6207900521591
623.4134897360705,656.0015815803392
624.414467253177,659.7084730132594
625.4154447702836,656.9936683020592
626.4164222873901,654.278863590859
627.4173998044967,662.2944975423992
628.4183773216032,679.8762382169438
629.4193548387098,697.4579788914883
630.4203323558163,723.6782971618419
631.4213098729228,750.2361943009514
632.4222873900294,779.2268013487146
633.423264907136,811.924802750908
634.4242424242425,844.6228041531016
635.425219941349,884.6410554140455
636.4261974584556,926.159605310973
637.4271749755621,968.6204622429118
638.4281524926687,1013.7121847644369
639.4291300097752,1058.803907285962
640.4301075268818,1119.3997494362502
641.4310850439883,1186.7219659337409
642.4320625610949,1253.3474195316232
643.4330400782014,1315.3603303072346
644.434017595308,1377.3732410828459
645.4349951124145,1416.839521830643
646.4359726295211,1438.9428573528107
647.4369501466276,1461.0461928749787
648.4379276637342,1467.5272117541117
649.4389051808407,1473.9871349417485
650.4398826979473,1488.0967119395323
651.4408602150538,1512.2453335064638
652.4418377321604,1536.3939550733953
653.4428152492669,1586.7395240806839
654.4437927663735,1641.1327756316784
655.44477028348,1713.9907753805828
656.4457478005866,1829.9378963019751
657.4467253176931,1945.8850172233674
658.4477028347997,2107.854934977105
659.4486803519062,2286.5302790488176
660.4496578690128,2465.8244691888012
661.4506353861193,2648.1967509486003
662.4516129032259,2830.569032708399
663.4525904203324,2976.1689119071257
664.453567937439,3097.376464269443
665.4545454545455,3212.872334780235
666.455522971652,3170.4744857364744
667.4565004887586,3128.0766366927137
668.4574780058651,3011.4345344864064
669.4584555229717,2810.6387484953752
670.4594330400782,2609.842962504344
671.4604105571848,2429.7731041512175
672.4613880742913,2251.9441565544766
673.4623655913979,2081.702396635799
674.4633431085044,1926.4451606136543
675.464320625611,1771.18792459151
676.4652981427175,1643.545045009717
677.4662756598241,1524.153147716292
678.4672531769306,1411.1737057293287
679.4682306940372,1323.2688016133725
680.4692082111437,1235.363897497416
681.4701857282503,1158.8808970760288
682.4711632453568,1088.8965643687382
683.4721407624634,1020.8836473071412
684.4731182795699,978.5989442778126
685.4740957966765,936.314241248484
686.475073313783,897.1667776313221
687.4760508308896,861.0959090719073
688.4770283479961,825.0250405124925
689.4780058651027,797.363576569231
690.4789833822092,770.2523380299031
691.4799608993158,749.6154821583556
692.4809384164223,739.8899498438197
693.4819159335289,730.1644175292839
694.4828934506354,716.4177206467295
695.483870967742,701.7038031594022
696.4848484848485,688.3387820987981
697.485826001955,679.249624113318
698.4868035190616,670.1604661278379
699.4877810361681,669.231701468973
700.4887585532747,672.2567359530123
701.4897360703812,673.5522509748758
702.4907135874878,660.4634226669061
703.4916911045943,647.3745943589364
704.4926686217009,637.7062190181
705.4936461388074,630.9382230073196
706.494623655914,624.1702269965393
707.4956011730205,616.8195157103722
708.4965786901271,609.4537699677165
709.4975562072336,605.1562456163592
710.4985337243402,605.3004008750127
711.4995112414467,605.4445561336662
712.5004887585533,605.9260675115686
713.5014662756598,606.4707094788043
714.5024437927664,608.9345615515962
715.5034213098729,616.4310013031567
716.5043988269795,623.9274410547172
717.505376344086,625.0816386976054
718.5063538611926,623.6438635521118
719.5073313782991,622.5337903739548
720.5083088954057,623.3782051406242
721.5092864125122,624.2226199072936
722.5102639296188,633.2614340965731
723.5112414467253,648.2977545651
724.5122189638319,663.2613310047417
725.5131964809384,671.7489173898857
726.514173998045,680.2365037750299
727.5151515151515,681.9509210487794
728.516129032258,675.21163055792
729.5171065493646,668.4723400670605
730.5180840664711,652.603302170169
731.5190615835777,635.473065170218
732.5200391006842,627.8870837702672
733.5210166177908,641.3147176578971
734.5219941348973,654.742351545527
735.5229716520039,660.1428330684374
736.5239491691104,662.8122610154413
737.524926686217,664.365406934689
738.5259042033235,660.8281261097065
739.5268817204301,657.2908452847242
740.5278592375366,653.1817503687654
741.5288367546432,648.7126593013721
742.5298142717497,644.3653786876033
743.5307917888563,642.4678661961768
744.5317693059628,640.5703537047502
745.5327468230694,635.8129364559301
746.5337243401759,627.970622283599
747.5347018572825,620.1283081112679
748.535679374389,619.6333385846448
749.5366568914956,619.8219181040328
750.5376344086021,618.6148835993797
