Raman Shift,Intensity
209.0,8.178
210.0,4.151
211.0,3.246
212.0,3.378
213.0,3.04
214.0,2.624
215.0,2.111
216.0,0.901
217.0,0.281
218.0,0.329
219.0,0.208
220.0,0.115
221.0,0.642
222.0,1.106
223.0,0.476
224.0,0.158
225.0,0.177
226.0,0.842
227.0,1.22
228.0,1.072
229.0,0.982
230.0,4.643
231.0,8.304
232.0,15.233
233.0,23.724
234.0,38.035
235.0,67.751
236.0,97.604
237.0,190.423
238.0,289.617
239.0,398.946
240.0,517.383
241.0,601.862
242.0,527.216
243.0,452.234
244.0,333.544
245.0,204.64
246.0,114.854
247.0,72.691
248.0,33.486
249.0,24.335
250.0,15.18
251.0,10.039
252.0,6.374
253.0,3.33
254.0,1.344
255.0,0.634
256.0,1.406
257.0,2.245
258.0,1.772
259.0,0.629
260.0,2.55
261.0,10.488
262.0,18.442
263.0,50.192
264.0,83.27
265.0,177.352
266.0,312.971
267.0,451.859
268.0,600.857
269.0,749.897
270.0,653.041
271.0,526.141
272.0,383.47
273.0,227.539
274.0,94.72
275.0,55.727
276.0,17.108
277.0,8.233
278.0,4.726
279.0,7.979
280.0,17.878
281.0,32.271
282.0,70.084
283.0,107.977
284.0,186.726
285.0,274.746
286.0,339.592
287.0,378.801
288.0,402.706
289.0,326.349
290.0,249.983
291.0,178.852
292.0,109.139
293.0,60.95
294.0,38.329
295.0,17.471
296.0,11.553
297.0,5.625
298.0,3.059
299.0,1.407
300.0,0.301
301.0,0.111
302.0,0.519
303.0,0.935
304.0,1.396
305.0,0.918
306.0,0.215
307.0,0.062
308.0,0.174
309.0,0.324
310.0,0.575
311.0,1.415
312.0,1.866
313.0,2.18
314.0,2.645
315.0,3.292
316.0,3.833
317.0,3.947
318.0,3.938
319.0,4.06
320.0,3.926
321.0,3.639
322.0,3.307
323.0,3.037
324.0,2.864
325.0,2.485
326.0,3.113
327.0,4.01
328.0,5.824
329.0,8.439
330.0,12.133
331.0,19.966
332.0,27.796
333.0,30.234
334.0,31.986
335.0,29.551
336.0,23.993
337.0,18.444
338.0,12.896
339.0,7.343
340.0,5.062
341.0,3.006
342.0,1.785
343.0,1.065
344.0,0.469
345.0,0.17
346.0,0.077
347.0,0.255
348.0,0.404
349.0,0.545
350.0,0.69
351.0,0.669
352.0,0.386
353.0,0.14
354.0,0.293
355.0,0.452
356.0,0.278
357.0,0.011
358.0,0.052
359.0,0.114
360.0,0.205
361.0,0.067
362.0,0.359
363.0,0.097
364.0,0.669
365.0,0.992
366.0,1.124
367.0,1.366
368.0,1.925
369.0,2.477
370.0,4.803
371.0,7.2
372.0,9.568
373.0,11.902
374.0,13.711
375.0,14.664
376.0,15.348
377.0,12.762
378.0,10.022
379.0,7.462
380.0,4.908
381.0,3.205
382.0,2.387
383.0,1.566
384.0,0.74
385.0,0.09
386.0,0.137
387.0,0.114
388.0,0.099
389.0,0.091
390.0,0.057
391.0,0.497
392.0,0.917
393.0,0.92
394.0,0.93
395.0,1.935
396.0,3.259
397.0,4.998
398.0,7.2
399.0,9.988
400.0,15.262
401.0,20.448
402.0,27.222
403.0,34.187
404.0,37.88
405.0,39.634
406.0,38.539
407.0,32.013
408.0,25.522
409.0,19.439
410.0,13.36
411.0,10.067
412.0,7.509
413.0,5.407
414.0,3.734
415.0,2.276
416.0,1.634
417.0,0.966
418.0,1.128
419.0,1.288
420.0,1.132
421.0,0.837
422.0,0.538
423.0,0.219
424.0,0.033
425.0,0.593
426.0,1.151
427.0,1.317
428.0,1.429
429.0,0.996
430.0,0.22
431.0,0.251
432.0,0.161
433.0,0.084
434.0,0.028
435.0,0.159
436.0,0.307
437.0,0.35
438.0,1.122
439.0,2.477
440.0,3.436
441.0,3.452
442.0,3.477
443.0,3.924
444.0,4.364
445.0,4.114
446.0,3.658
447.0,2.595
448.0,1.129
449.0,0.03
450.0,0.054
451.0,0.126
452.0,1.135
453.0,2.398
454.0,4.01
455.0,5.732
456.0,7.672
457.0,9.837
458.0,11.362
459.0,10.866
460.0,10.372
461.0,8.56
462.0,6.738
463.0,4.595
464.0,2.345
465.0,0.93
466.0,0.399
467.0,0.041
468.0,0.039
469.0,0.029
470.0,0.012
471.0,0.013
472.0,0.045
473.0,0.086
474.0,0.135
475.0,0.193
476.0,0.38
477.0,0.912
478.0,1.465
479.0,2.466
480.0,3.475
481.0,5.193
482.0,7.116
483.0,8.32
484.0,8.92
485.0,9.257
486.0,8.982
487.0,8.835
488.0,10.363
489.0,11.899
490.0,13.071
491.0,14.258
492.0,13.698
493.0,11.781
494.0,9.623
495.0,7.16
496.0,4.876
497.0,3.763
498.0,2.654
499.0,1.546
500.0,0.44
501.0,0.234
502.0,0.475
503.0,0.52
504.0,0.313
505.0,0.105
506.0,0.104
507.0,0.319
508.0,0.101
509.0,0.12
510.0,0.684
511.0,1.356
512.0,2.269
513.0,3.389
514.0,4.926
515.0,7.387
516.0,10.168
517.0,16.225
518.0,22.276
519.0,28.713
520.0,35.203
521.0,37.302
522.0,36.97
523.0,34.129
524.0,28.034
525.0,22.181
526.0,17.028
527.0,11.852
528.0,8.823
529.0,5.78
530.0,4.141
531.0,2.885
532.0,2.136
533.0,1.767
534.0,1.39
535.0,1.005
536.0,0.612
537.0,0.211
538.0,0.197
539.0,0.194
540.0,0.175
541.0,0.17
542.0,0.18
543.0,0.033
544.0,0.458
545.0,0.739
546.0,0.704
547.0,0.763
548.0,1.632
549.0,2.498
550.0,2.955
551.0,3.366
552.0,4.722
553.0,6.467
554.0,8.979
555.0,12.426
556.0,16.304
557.0,21.167
558.0,26.181
559.0,32.533
560.0,38.902
561.0,40.375
562.0,41.297
563.0,39.039
564.0,35.423
565.0,30.665
566.0,24.784
567.0,19.48
568.0,15.527
569.0,11.828
570.0,8.765
571.0,5.668
572.0,4.263
573.0,3.01
574.0,2.1
575.0,1.319
576.0,1.035
577.0,1.175
578.0,1.159
579.0,0.85
580.0,0.545
581.0,0.242
582.0,0.021
583.0,0.267
584.0,0.537
585.0,0.101
586.0,0.504
587.0,0.546
588.0,0.223
589.0,0.283
590.0,0.87
591.0,1.234
592.0,0.898
593.0,0.587
594.0,0.704
595.0,0.82
596.0,0.528
597.0,0.177
598.0,0.136
599.0,0.139
600.0,0.003
601.0,0.031
602.0,0.106
603.0,0.177
604.0,0.323
605.0,0.846
606.0,1.365
607.0,1.422
608.0,1.475
609.0,1.566
610.0,1.643
611.0,1.706
612.0,1.758
613.0,1.762
614.0,1.742
615.0,1.594
616.0,1.134
617.0,0.76
618.0,0.786
619.0,0.813
620.0,0.839
621.0,0.864
622.0,0.514
623.0,0.074
624.0,0.07
625.0,0.054
626.0,0.041
627.0,0.031
628.0,0.022
629.0,0.014
630.0,0.069
631.0,0.542
632.0,1.017
633.0,1.03
634.0,1.042
635.0,1.445
636.0,1.923
637.0,2.719
638.0,3.663
639.0,4.606
640.0,5.51
641.0,6.424
642.0,7.347
643.0,8.181
644.0,8.659
645.0,9.085
646.0,8.644
647.0,8.204
648.0,7.343
649.0,6.453
650.0,5.253
651.0,3.924
652.0,3.147
653.0,2.722
654.0,2.073
655.0,1.172
656.0,0.561
657.0,0.595
658.0,0.63
659.0,0.665
660.0,0.702
661.0,0.739
662.0,0.776
663.0,0.405
664.0,0.024
665.0,0.113
666.0,0.08
667.0,0.049
668.0,0.021
669.0,0.008
670.0,0.036
671.0,0.065
672.0,0.094
673.0,0.123
674.0,0.152
675.0,0.182
676.0,0.212
677.0,0.242
678.0,0.272
679.0,0.303
680.0,0.32
681.0,0.299
682.0,0.59
683.0,1.073
684.0,1.337
685.0,1.377
686.0,1.418
687.0,1.459
688.0,1.502
689.0,1.546
690.0,1.541
691.0,1.116
692.0,0.692
693.0,0.728
694.0,0.775
695.0,0.823
696.0,0.93
697.0,0.707
698.0,0.336
699.0,0.202
700.0,0.256
701.0,0.311
702.0,0.366
703.0,0.422
704.0,0.477
705.0,0.531
706.0,0.585
707.0,0.638
708.0,0.69
709.0,0.742
710.0,0.325
711.0,0.097
712.0,0.109
713.0,0.068
714.0,0.328
715.0,0.839
716.0,0.74
717.0,0.304
718.0,0.117
719.0,0.152
720.0,0.186
721.0,0.218
722.0,0.25
723.0,0.281
724.0,0.312
725.0,0.341
726.0,0.369
727.0,0.338
728.0,0.3
729.0,0.281
730.0,0.377
731.0,0.406
732.0,0.435
733.0,0.462
734.0,0.487
735.0,0.513
736.0,0.538
737.0,0.562
738.0,0.591
739.0,0.614
740.0,0.636
741.0,0.657
742.0,0.677
743.0,0.609
744.0,0.182
745.0,0.104
746.0,0.44
747.0,0.909
748.0,0.923
749.0,0.935
750.0,0.946
751.0,0.955
752.0,0.555
753.0,0.084
754.0,0.337
755.0,0.818
756.0,0.661
757.0,0.183
758.0,0.022
759.0,0.026
760.0,0.034
761.0,0.113
762.0,0.059
763.0,0.522
764.0,0.839
765.0,0.821
766.0,0.803
767.0,0.784
768.0,0.766
769.0,0.742
770.0,0.723
771.0,0.704
772.0,0.685
773.0,0.667
774.0,0.621
775.0,0.577
776.0,0.532
777.0,0.469
778.0,0.458
779.0,0.449
780.0,0.442
781.0,0.436
782.0,0.432
783.0,0.43
784.0,0.429
785.0,0.43
786.0,0.433
787.0,0.437
788.0,0.465
789.0,0.472
790.0,0.482
791.0,0.495
792.0,0.51
793.0,0.552
794.0,0.589
795.0,0.621
796.0,0.649
797.0,0.676
798.0,0.702
799.0,0.726
800.0,0.75
801.0,0.775
802.0,0.371
803.0,0.087
804.0,0.249
805.0,0.759
806.0,0.54
807.0,0.083
808.0,0.042
809.0,0.019
810.0,0.004
811.0,0.024
812.0,0.043
813.0,0.06
814.0,0.318
815.0,0.819
816.0,0.895
817.0,0.428
818.0,0.149
819.0,0.157
820.0,0.348
821.0,0.876
822.0,1.104
823.0,0.61
824.0,0.189
825.0,0.204
826.0,0.178
827.0,0.153
828.0,0.129
829.0,0.103
830.0,0.078
831.0,0.051
832.0,0.021
833.0,0.011
834.0,0.047
835.0,0.084
836.0,0.126
837.0,0.264
838.0,0.706
839.0,0.326
840.0,0.208
841.0,0.03
842.0,0.47
843.0,0.912
844.0,1.355
845.0,1.456
846.0,1.413
847.0,1.691
848.0,2.133
849.0,2.271
850.0,2.214
851.0,2.433
852.0,2.855
853.0,3.065
854.0,3.049
855.0,3.038
856.0,2.987
857.0,2.985
858.0,2.988
859.0,2.811
860.0,2.382
861.0,1.926
862.0,1.461
863.0,1.171
864.0,1.209
865.0,1.254
866.0,1.311
867.0,1.244
868.0,0.836
869.0,0.535
870.0,0.603
871.0,0.687
872.0,0.781
873.0,0.788
874.0,0.407
875.0,0.159
876.0,0.714
877.0,1.175
878.0,1.181
879.0,1.184
880.0,1.202
881.0,1.264
882.0,1.417
883.0,1.602
884.0,2.274
885.0,2.983
886.0,3.286
887.0,3.28
888.0,2.994
889.0,2.764
890.0,3.137
891.0,3.31
892.0,3.359
893.0,3.38
894.0,2.898
895.0,2.282
896.0,1.618
897.0,0.899
898.0,0.575
899.0,0.231
900.0,0.147
901.0,0.575
902.0,0.187
903.0,0.258
904.0,0.208
905.0,0.844
906.0,0.634
907.0,0.298
908.0,0.383
909.0,0.538
910.0,0.132
911.0,0.922
912.0,2.075
913.0,3.207
914.0,5.155
915.0,7.248
916.0,10.115
917.0,13.089
918.0,17.197
919.0,21.773
920.0,26.308
921.0,30.729
922.0,34.941
923.0,39.24
924.0,42.395
925.0,45.328
926.0,46.784
927.0,47.95
928.0,49.213
929.0,50.582
930.0,53.273
931.0,56.338
932.0,61.954
933.0,68.223
934.0,74.58
935.0,81.013
936.0,82.592
937.0,83.231
938.0,76.447
939.0,68.224
940.0,57.574
941.0,46.57
942.0,37.009
943.0,27.862
944.0,21.508
945.0,15.345
946.0,11.607
947.0,8.301
948.0,5.909
949.0,3.561
950.0,1.612
951.0,0.315
952.0,0.448
953.0,0.413
954.0,0.397
955.0,0.404
956.0,0.442
957.0,0.518
958.0,0.643
959.0,0.829
960.0,0.109
961.0,0.581
962.0,0.725
963.0,0.823
964.0,1.371
965.0,1.875
966.0,2.338
967.0,2.729
968.0,3.048
969.0,3.36
970.0,4.079
971.0,4.771
972.0,5.804
973.0,6.756
974.0,7.984
975.0,9.089
976.0,10.872
977.0,13.329
978.0,17.82
979.0,22.499
980.0,28.056
981.0,33.658
982.0,39.287
983.0,43.943
984.0,46.052
985.0,46.262
986.0,42.27
987.0,37.755
988.0,32.253
989.0,26.644
990.0,20.718
991.0,15.611
992.0,11.7
993.0,8.49
994.0,6.13
995.0,4.336
996.0,3.032
997.0,2.264
998.0,2.056
999.0,1.736
1000.0,0.957
1001.0,0.476
1002.0,0.196
1003.0,0.082
1004.0,0.36
1005.0,0.272
1006.0,0.039
1007.0,0.19
1008.0,0.413
1009.0,0.228
1010.0,0.07
1011.0,0.051
1012.0,0.25
1013.0,0.012
1014.0,0.344
1015.0,0.26
1016.0,0.923
1017.0,1.073
1018.0,1.199
1019.0,0.815
1020.0,0.387
1021.0,0.438
1022.0,0.539
1023.0,0.671
1024.0,0.784
1025.0,0.864
1026.0,0.881
1027.0,0.929
1028.0,0.982
1029.0,0.956
1030.0,0.747
1031.0,0.776
1032.0,0.596
1033.0,0.117
1034.0,0.136
1035.0,0.679
1036.0,0.643
1037.0,0.143
1038.0,0.041
1039.0,0.026
1040.0,0.336
1041.0,0.866
1042.0,0.631
1043.0,0.127
1044.0,0.038
1045.0,0.051
1046.0,0.074
1047.0,0.099
1048.0,0.61
1049.0,1.135
1050.0,0.634
1051.0,0.222
1052.0,0.765
1053.0,1.226
1054.0,1.217
1055.0,1.105
1056.0,0.612
1057.0,0.274
1058.0,0.301
1059.0,0.328
1060.0,0.354
1061.0,0.44
1062.0,0.517
1063.0,0.552
1064.0,0.58
1065.0,0.609
1066.0,0.637
1067.0,0.666
1068.0,0.694
1069.0,0.721
1070.0,0.75
1071.0,0.779
1072.0,0.807
1073.0,0.835
1074.0,0.859
1075.0,0.364
1076.0,0.086
1077.0,0.064
1078.0,0.044
1079.0,0.583
1080.0,0.849
1081.0,0.342
1082.0,0.2
1083.0,0.737
1084.0,1.043
1085.0,1.053
1086.0,1.063
1087.0,1.071
1088.0,1.08
1089.0,1.087
1090.0,1.094
1091.0,1.099
1092.0,1.045
1093.0,1.0
1094.0,0.526
1095.0,0.003
1096.0,0.001
1097.0,0.002
1098.0,0.003
1099.0,0.101
1100.0,0.626
1101.0,0.852
1102.0,0.325
1103.0,0.0
1104.0,0.0
1105.0,0.001
1106.0,0.002
1107.0,0.002
1108.0,0.002
1109.0,0.0
1110.0,0.002
1111.0,0.002
1112.0,0.001
1113.0,0.001
1114.0,0.001
1115.0,0.004
1116.0,0.011
1117.0,0.022
1118.0,0.029
1119.0,0.036
1120.0,0.047
1121.0,0.063
1122.0,0.06
1123.0,0.056
1124.0,0.051
1125.0,0.045
1126.0,0.038
1127.0,0.036
1128.0,0.027
1129.0,0.016
1130.0,0.005
1131.0,0.008
1132.0,0.023
1133.0,0.064
1134.0,0.046
1135.0,0.026
1136.0,0.003
1137.0,0.172
1138.0,0.678
1139.0,0.927
1140.0,0.899
1141.0,0.55
1142.0,0.011
1143.0,0.201
1144.0,0.704
1145.0,0.754
1146.0,0.723
1147.0,0.168
1148.0,0.299
1149.0,0.196
1150.0,0.569
1151.0,0.526
1152.0,0.479
1153.0,0.451
1154.0,0.683
1155.0,1.194
1156.0,1.707
1157.0,2.231
1158.0,2.753
1159.0,3.282
1160.0,3.815
1161.0,4.35
1162.0,4.888
1163.0,5.352
1164.0,5.256
1165.0,5.268
1166.0,5.283
1167.0,4.855
1168.0,3.804
1169.0,2.755
1170.0,1.709
1171.0,1.41
1172.0,1.726
1173.0,1.316
1174.0,0.817
1175.0,0.842
1176.0,0.885
1177.0,0.929
1178.0,0.836
1179.0,0.344
1180.0,0.072
1181.0,0.126
1182.0,0.476
1183.0,1.073
1184.0,1.298
1185.0,1.358
1186.0,0.511
1187.0,0.51
1188.0,0.583
1189.0,1.482
1190.0,0.981
1191.0,0.634
1192.0,0.672
1193.0,0.709
1194.0,0.745
1195.0,0.78
1196.0,0.853
1197.0,0.919
1198.0,0.98
1199.0,1.037
1200.0,1.063
1201.0,1.087
1202.0,1.108
1203.0,0.846
1204.0,0.864
1205.0,0.881
1206.0,0.896
1207.0,0.922
1208.0,0.934
1209.0,0.945
1210.0,0.492
1211.0,0.037
1212.0,0.033
1213.0,0.032
1214.0,0.034
1215.0,0.146
1216.0,0.685
1217.0,0.671
1218.0,0.119
1219.0,0.308
1220.0,0.855
1221.0,0.485
1222.0,0.052
1223.0,0.494
1224.0,0.943
1225.0,0.942
1226.0,0.941
1227.0,0.902
1228.0,0.872
1229.0,0.848
1230.0,0.827
1231.0,0.835
1232.0,0.844
1233.0,0.854
1234.0,0.864
1235.0,0.875
1236.0,0.886
1237.0,0.897
1238.0,0.897
1239.0,0.909
1240.0,0.921
1241.0,0.519
1242.0,0.018
1243.0,0.635
1244.0,1.125
1245.0,0.592
1246.0,0.223
1247.0,0.24
1248.0,0.255
1249.0,0.27
1250.0,0.283
1251.0,0.295
1252.0,0.776
1253.0,1.316
1254.0,1.325
1255.0,1.332
1256.0,1.338
1257.0,0.883
1258.0,0.22
1259.0,0.005
1260.0,1.143
1261.0,1.35
1262.0,1.332
1263.0,1.311
1264.0,1.289
1265.0,1.264
1266.0,1.238
1267.0,1.21
1268.0,1.181
1269.0,1.15
1270.0,1.117
1271.0,1.083
1272.0,1.048
1273.0,0.92
1274.0,0.166
1275.0,0.076
1276.0,0.438
1277.0,0.638
1278.0,0.596
1279.0,0.554
1280.0,0.513
1281.0,0.472
1282.0,0.433
1283.0,0.393
1284.0,0.354
1285.0,0.315
1286.0,0.278
1287.0,0.245
1288.0,0.213
1289.0,0.181
1290.0,0.154
1291.0,0.084
1292.0,0.063
1293.0,0.043
1294.0,0.026
1295.0,0.01
1296.0,0.003
1297.0,0.014
1298.0,0.012
1299.0,0.569
1300.0,0.824
1301.0,0.265
1302.0,0.02
1303.0,0.015
1304.0,0.008
1305.0,0.001
1306.0,0.011
1307.0,0.028
1308.0,0.047
1309.0,0.067
1310.0,0.089
1311.0,0.113
1312.0,0.137
1313.0,0.271
1314.0,0.298
1315.0,0.326
1316.0,0.355
1317.0,0.384
1318.0,0.409
1319.0,0.437
1320.0,0.465
1321.0,0.495
1322.0,0.614
1323.0,0.643
1324.0,0.674
1325.0,0.706
1326.0,0.738
1327.0,0.421
1328.0,0.115
1329.0,0.778
1330.0,1.84
1331.0,1.858
1332.0,1.698
1333.0,1.148
1334.0,0.906
1335.0,0.918
1336.0,0.485
1337.0,0.038
1338.0,1.099
1339.0,1.837
1340.0,1.35
1341.0,1.06
1342.0,1.054
1343.0,1.464
1344.0,1.912
1345.0,1.357
1346.0,0.899
1347.0,0.883
1348.0,0.867
1349.0,0.848
1350.0,0.829
1351.0,0.808
1352.0,0.785
1353.0,0.561
1354.0,0.034
1355.0,0.124
1356.0,0.413
1357.0,0.95
1358.0,1.487
1359.0,0.946
1360.0,0.565
1361.0,1.107
1362.0,1.141
1363.0,0.539
1364.0,0.338
1365.0,0.31
1366.0,0.828
1367.0,1.258
1368.0,1.233
1369.0,1.212
1370.0,1.15
1371.0,0.64
1372.0,0.052
1373.0,0.027
1374.0,0.017
1375.0,0.012
1376.0,0.01
1377.0,0.009
1378.0,0.011
1379.0,0.014
1380.0,0.019
1381.0,0.026
1382.0,0.034
1383.0,0.045
1384.0,0.057
1385.0,0.071
1386.0,0.173
1387.0,0.79
1388.0,0.994
1389.0,0.441
1390.0,0.349
1391.0,0.375
1392.0,0.401
1393.0,0.515
1394.0,1.122
1395.0,1.239
1396.0,0.689
1397.0,0.541
1398.0,0.571
1399.0,0.601
1400.0,0.49
1401.0,0.059
1402.0,0.009
1403.0,0.597
1404.0,0.28
1405.0,0.19
1406.0,0.41
1407.0,0.804
1408.0,0.822
1409.0,0.847
1410.0,0.871
1411.0,0.895
1412.0,0.919
1413.0,0.943
1414.0,0.688
1415.0,0.128
1416.0,0.456
1417.0,0.994
1418.0,0.996
1419.0,1.018
1420.0,1.04
1421.0,0.954
1422.0,0.976
1423.0,0.467
1424.0,0.215
1425.0,0.243
1426.0,0.551
1427.0,1.158
1428.0,1.308
1429.0,1.33
1430.0,1.351
1431.0,1.372
1432.0,1.392
1433.0,1.414
1434.0,1.436
1435.0,0.897
1436.0,0.481
1437.0,0.509
1438.0,0.213
1439.0,0.349
1440.0,0.073
1441.0,0.675
1442.0,1.276
1443.0,1.35
1444.0,0.774
1445.0,0.639
1446.0,0.65
1447.0,0.662
1448.0,0.673
1449.0,0.684
1450.0,0.695
1451.0,0.767
1452.0,1.348
1453.0,1.624
1454.0,1.042
1455.0,0.609
1456.0,0.639
1457.0,1.175
1458.0,1.537
1459.0,0.953
1460.0,0.674
1461.0,0.683
1462.0,0.691
1463.0,0.7
1464.0,0.709
1465.0,0.45
1466.0,0.133
1467.0,0.191
1468.0,0.742
1469.0,0.748
1470.0,0.516
1471.0,0.067
1472.0,0.634
1473.0,1.742
1474.0,0.563
1475.0,0.027
1476.0,0.634
1477.0,0.836
1478.0,0.853
1479.0,0.873
1480.0,0.892
1481.0,0.912
1482.0,0.871
1483.0,0.9
1484.0,0.907
1485.0,0.892
1486.0,0.879
1487.0,0.893
1488.0,0.906
1489.0,0.92
1490.0,0.932
1491.0,0.943
1492.0,0.584
1493.0,0.0
1494.0,0.007
1495.0,0.016
1496.0,0.042
1497.0,0.051
1498.0,0.001
1499.0,0.421
1500.0,0.0
