Raman Shift,Intensity
91.19958,224.6687
91.6817,226.3258
92.16382,226.2788
92.64594,224.0942
93.12805,220.6525
93.61017,216.8159
94.09229,212.6013
94.5744,207.6438
95.05651,202.9051
95.53863,198.2588
96.02074,194.02
96.50286,190.5563
96.98498,187.8963
97.46709,185.4514
97.94921,182.9368
98.43133,180.4057
98.91344,177.8144
99.39556,174.9309
99.87768,171.8791
100.3598,169.0835
100.8419,166.7703
101.324,164.936
101.8061,163.3098
102.2883,161.7811
102.7704,160.487
103.2525,159.6152
103.7346,159.201
104.2167,158.9421
104.6988,158.7397
105.181,158.504
105.6631,158.0822
106.1452,157.4186
106.6273,156.5137
107.1094,155.3357
107.5915,153.5731
108.0737,151.8996
108.5558,150.6025
109.0379,149.6112
109.52,148.7445
110.0021,147.8213
110.4842,146.7951
110.9664,145.9824
111.4485,145.3588
111.9306,144.9381
112.4127,144.8171
112.8948,144.9663
113.3769,145.2222
113.8591,145.3719
114.3412,145.5686
114.8233,145.2927
115.3054,144.093
115.7875,142.6448
116.2696,141.6725
116.7517,141.4513
117.2339,141.6078
117.716,141.2218
118.1981,140.0206
118.6802,138.9648
119.1623,138.2515
119.6444,137.8804
120.1266,137.9183
120.6087,138.6136
121.0908,139.5743
121.5729,140.0405
122.055,139.9277
122.5371,139.4692
123.0193,138.7666
123.5014,137.785
123.9835,136.8418
124.4656,136.0593
124.9477,135.4105
125.4298,134.9117
125.912,134.6124
126.3941,134.4211
126.8762,134.0894
127.3583,133.3547
127.8404,132.9543
128.3225,133.4369
128.8047,134.2648
129.2868,134.7065
129.7689,134.2563
130.251,132.983
130.7331,131.882
131.2152,130.8707
131.6974,130.1216
132.1795,129.8041
132.6616,129.8124
133.1437,129.9125
133.6258,129.9043
134.1079,129.7684
134.5901,129.6374
135.0722,129.4447
135.5543,129.306
136.0364,129.3019
136.5185,129.4339
137.0006,129.6425
137.4828,129.8958
137.9649,130.232
138.447,130.3515
138.9291,130.0459
139.4112,129.5908
139.8933,129.2978
140.3755,129.2398
140.8576,129.3329
141.3397,129.5337
141.8218,129.8331
142.3039,130.0741
142.786,130.1742
143.2681,130.1592
143.7503,130.0974
144.2324,129.8831
144.7145,129.7805
145.1966,130.0596
145.6787,130.7179
146.1608,131.4074
146.643,131.8483
147.1251,132.027
147.6072,132.0896
148.0893,131.795
148.5714,131.5613
149.0535,131.7105
149.5357,132.2896
150.0178,132.9795
150.4999,133.2687
150.982,132.9041
151.4641,132.6871
151.9462,132.7098
152.4284,132.8686
152.9105,133.0871
153.3926,133.3353
153.8747,133.6316
154.3568,134.0276
154.8389,134.7704
155.3211,135.3057
155.8032,135.4187
156.2853,135.3679
156.7674,135.447
157.2495,135.8014
157.7316,136.3932
158.2138,137.0816
158.6959,138.0848
159.178,138.9309
159.6601,139.4426
160.1422,139.7038
160.6243,139.9174
161.1065,140.2114
161.5886,140.5303
162.0707,140.651
162.5528,140.4087
163.0349,140.1442
163.517,140.1424
163.9991,140.3649
164.4813,140.4273
164.9634,140.0754
165.4455,139.3754
165.9276,138.5273
166.4097,137.4605
166.8918,136.3194
167.374,135.2684
167.8561,134.3221
168.3382,133.404
168.8203,132.3094
169.3024,131.2539
169.7845,130.5725
170.2667,130.5914
170.7488,130.9476
171.2309,130.7264
171.713,129.5005
172.1951,128.4834
172.6772,128.1924
173.1594,128.3559
173.6415,128.5927
174.1236,128.6701
174.6057,128.6394
175.0878,128.8228
175.5699,129.4687
176.0521,130.0646
176.5342,130.5172
177.0163,130.8224
177.4984,130.9542
177.9805,130.8491
178.4626,130.5029
178.9448,130.5342
179.4269,131.4251
179.909,132.2177
180.3911,132.5087
180.8732,132.4357
181.3553,132.4037
181.8375,132.7736
182.3196,133.602
182.8017,134.2776
183.2838,134.7343
183.7659,135.1338
184.248,135.5475
184.7301,135.9773
185.2123,136.371
185.6944,136.6366
186.1765,136.7388
186.6586,137.1968
187.1407,138.2082
187.6228,139.4115
188.105,140.6443
188.5871,141.8674
189.0692,142.9174
189.5513,143.5226
190.0334,143.7
190.5155,144.1339
190.9977,145.048
191.4798,146.1821
191.9619,147.2187
192.444,148.0937
192.9261,149.0366
193.4082,150.3414
193.8904,151.913
194.3725,153.5023
194.8546,155.1787
195.3367,156.8047
195.8188,158.0006
196.3009,158.4746
196.7831,159.1053
197.2652,160.7608
197.7473,163.1056
198.2294,165.2614
198.7115,166.4919
199.1936,167.0975
199.6758,168.3796
200.1579,170.6558
200.64,173.2797
201.1221,175.7814
201.6042,178.2801
202.0863,181.0631
202.5685,184.5084
203.0506,188.5603
203.5327,192.1329
204.0148,194.7144
204.4969,197.2975
204.979,200.1677
205.4612,203.3199
205.9433,206.7033
206.4254,210.2951
206.9075,214.1062
207.3896,217.9044
207.8717,221.7187
208.3539,225.4955
208.836,229.0105
209.3181,232.427
209.8002,236.1568
210.2823,240.6423
210.7644,245.9808
211.2466,250.9683
211.7287,255.5877
212.2108,259.9079
212.6929,263.6219
213.175,266.9754
213.6571,270.6855
214.1393,275.451
214.6214,281.4656
215.1035,287.2827
215.5856,293.0717
216.0677,298.5876
216.5498,303.6383
217.032,308.2693
217.5141,312.763
217.9962,317.2936
218.4783,321.8387
218.9604,326.8573
219.4425,333.109
219.9247,339.1869
220.4068,344.301
220.8889,348.4111
221.371,351.8454
221.8531,354.8344
222.3352,357.3142
222.8174,359.4649
223.2995,361.8985
223.7816,363.5814
224.2637,363.6646
224.7458,362.1298
225.2279,359.6287
225.71,356.7301
226.1922,353.2504
226.6743,348.4493
227.1564,341.7487
227.6385,334.0399
228.1206,326.1777
228.6027,318.226
229.0849,309.8248
229.567,300.6848
230.0491,290.9075
230.5312,280.7205
231.0133,269.6763
231.4954,258.5366
231.9776,248.1638
232.4597,238.6098
232.9418,229.472
233.4239,220.395
233.906,211.571
234.3881,203.354
234.8703,195.8749
235.3524,189.0094
235.8345,182.579
236.3166,176.5639
236.7987,170.9229
237.2808,165.5398
237.763,160.5235
238.2451,156.0639
238.7272,152.3164
239.2093,149.0078
239.6914,145.7137
240.1735,142.345
240.6557,139.2442
241.1378,136.5167
241.6199,134.1142
242.102,132.0808
242.5841,130.4883
243.0662,129.119
243.5484,127.5588
244.0305,125.659
244.5126,123.9925
244.9947,122.9263
245.4768,122.037
245.9589,120.938
246.441,119.4863
246.9232,117.9156
247.4053,116.6367
247.8874,115.8173
248.3695,114.8978
248.8516,113.449
249.3337,112.0643
249.8159,111.2939
250.298,111.2898
250.7801,111.639
251.2622,111.6644
251.7443,111.2686
252.2264,110.7434
252.7086,110.0249
253.1907,109.2698
253.6728,108.6344
254.1549,108.1408
254.637,107.6245
255.1191,106.7158
255.6013,104.8157
256.0834,103.8908
256.5655,104.8019
257.0476,105.9137
257.5297,106.0776
258.0118,105.131
258.494,103.7821
258.9761,102.9993
259.4582,103.0901
259.9403,102.9866
260.4224,102.6686
260.9045,102.2179
261.3867,101.5791
261.8688,100.8054
262.3509,100.1199
262.833,99.80336
263.3151,100.0156
263.7972,100.0173
264.2794,99.72847
264.7615,99.34287
265.2436,98.94241
265.7257,98.54472
266.2078,98.13724
266.6899,97.69804
267.1721,97.20741
267.6542,96.83349
268.1363,96.68626
268.6184,96.53106
269.1005,96.20196
269.5826,95.74409
270.0648,95.36683
270.5469,95.28036
271.029,95.50729
271.5111,95.32231
271.9932,94.31329
272.4753,93.38902
272.9575,92.97163
273.4396,92.96729
273.9217,93.07301
274.4038,93.10041
274.8859,93.05238
275.368,92.9576
275.8501,92.80937
276.3322,92.63485
276.8144,92.39577
277.2965,92.13518
277.7786,91.95027
278.2607,91.89927
278.7428,91.955
279.2249,92.0056
279.7071,92.09692
280.1892,92.13301
280.6713,92.10171
281.1534,91.99813
281.6355,91.77036
282.1176,91.36857
282.5998,90.91936
283.0819,90.7933
283.564,91.22497
284.0461,91.48672
284.5282,91.2992
285.0103,90.88836
285.4925,90.59074
285.9746,90.52209
286.4567,90.55917
286.9388,90.48508
287.4209,90.2512
287.903,90.08269
288.3852,89.97147
288.8673,89.96223
289.3494,90.16779
289.8315,90.62222
290.3136,91.11337
290.7957,91.3868
291.2779,91.419
291.76,91.38041
292.2421,91.22156
292.7242,91.0351
293.2063,90.88862
293.6884,90.79222
294.1706,90.78884
294.6527,90.98415
295.1348,91.37074
295.6169,91.50272
296.099,90.97119
296.5811,90.46464
297.0633,90.67941
297.5454,91.5697
298.0275,92.34866
298.5096,92.4071
298.9917,91.8565
299.4738,91.58515
299.956,91.64942
300.4381,91.93306
300.9202,92.51435
301.4023,93.31206
301.8844,93.9663
302.3665,94.26922
302.8487,94.30928
303.3308,94.37035
303.8129,94.38551
304.295,94.51919
304.7771,94.92419
305.2592,95.5093
305.7414,96.03008
306.2235,96.3783
306.7056,96.64965
307.1877,97.08135
307.6698,97.78345
308.1519,98.23254
308.6341,97.95122
309.1162,97.36924
309.5983,97.26527
310.0804,97.87865
310.5625,98.81702
311.0446,99.61433
311.5268,100.2793
312.0089,100.8608
312.491,101.4037
312.9731,101.8501
313.4552,102.0537
313.9373,101.9805
314.4195,101.9575
314.9016,102.3401
315.3837,103.1021
315.8658,103.7384
316.3479,104.0563
316.83,104.3419
317.3121,104.891
317.7943,105.6903
318.2764,106.4116
318.7585,106.7931
319.2406,106.9176
319.7227,107.2255
320.2048,107.7176
320.687,108.3845
321.1691,109.4597
321.6512,110.7655
322.1333,111.6405
322.6154,111.6749
323.0975,111.2
323.5797,111.0709
324.0618,111.422
324.5439,111.7559
325.026,111.7401
325.5081,111.6092
325.9902,111.9241
326.4724,112.9584
326.9545,114.1219
327.4366,114.3832
327.9187,113.595
328.4008,112.9826
328.8829,112.8561
329.3651,112.981
329.8472,113.1435
330.3293,113.3065
330.8114,113.3892
331.2935,113.3065
331.7756,113.0404
332.2578,112.6954
332.7399,112.17
333.222,111.6476
333.7041,111.2382
334.1862,110.9527
334.6683,110.8081
335.1505,110.894
335.6326,111.1288
336.1147,110.9643
336.5968,110.0659
337.0789,109.1699
337.561,108.5736
338.0432,108.214
338.5253,107.9648
339.0074,107.7899
339.4895,107.6386
339.9716,107.3573
340.4537,106.8284
340.9359,106.4028
341.418,106.0547
341.9001,105.8789
342.3822,106.113
342.8643,106.8251
343.3464,107.6252
343.8286,107.9549
344.3107,107.5879
344.7928,107.3618
345.2749,107.2732
345.757,107.3329
346.2391,107.572
346.7213,107.9798
347.2034,108.504
347.6855,109.1052
348.1676,109.7904
348.6497,110.4724
349.1318,111.2337
349.614,111.9124
350.0961,112.3369
350.5782,112.6161
351.0603,113.0178
351.5424,113.7089
352.0245,114.6102
352.5067,115.3883
352.9888,115.8476
353.4709,116.4245
353.953,117.1767
354.4351,118.0695
354.9172,119.1337
355.3994,120.3681
355.8815,121.5957
356.3636,122.494
356.8457,122.6783
357.3278,123.3384
357.8099,124.7949
358.292,126.44
358.7741,127.905
359.2563,129.1383
359.7384,130.2226
360.2205,131.2211
360.7026,132.109
361.1847,133.1577
361.6668,134.2747
362.149,135.6302
362.6311,137.5912
363.1132,139.817
363.5953,141.6748
364.0774,142.7847
364.5595,143.2411
365.0417,143.4189
365.5238,142.9359
366.0059,142.7009
366.488,143.2239
366.9701,143.8298
367.4522,143.9022
367.9344,143.2352
368.4165,141.9799
368.8986,140.3145
369.3807,138.1372
369.8628,135.8144
370.3449,133.3692
370.8271,130.7816
371.3092,127.9298
371.7913,124.8833
372.2734,121.8197
372.7555,118.8778
373.2376,116.0649
373.7198,113.4485
374.2019,111.038
374.684,108.8384
375.1661,106.9564
375.6482,105.2432
376.1303,103.4593
376.6125,101.4318
377.0946,99.37324
377.5767,97.78783
378.0588,96.82755
378.5409,95.91438
379.023,94.90847
379.5052,93.8735
379.9873,92.80653
380.4694,91.71068
380.9515,90.73668
381.4336,90.11327
381.9157,89.83031
382.3979,89.44289
382.88,88.82124
383.3621,88.16636
383.8442,87.60745
384.3263,87.13198
384.8084,86.67435
385.2906,86.15496
385.7727,85.64156
386.2548,85.32211
386.7369,85.25587
387.219,85.17325
387.7011,84.90526
388.1833,84.52663
388.6654,84.12489
389.1475,83.69068
389.6296,83.2841
390.1117,82.91921
390.5938,82.60818
391.076,82.48437
391.5581,82.68638
392.0402,82.97911
392.5223,83.06123
393.0044,82.93941
393.4865,82.66577
393.9687,82.08029
394.4508,81.41325
394.9329,81.07235
395.415,81.13236
395.8971,81.30245
396.3792,81.31213
396.8614,81.18803
397.3435,81.22411
397.8256,81.75204
398.3077,82.16398
398.7898,81.90962
399.2719,81.16077
399.754,80.54787
400.2361,80.38318
400.7183,80.56152
401.2004,80.81622
401.6825,81.27652
402.1646,81.57864
402.6467,81.52319
403.1288,81.33945
403.611,81.35036
404.0931,81.61233
404.5752,81.8316
405.0573,81.62844
405.5394,80.86729
406.0215,80.37328
406.5037,80.15608
406.9858,80.158
407.4679,80.53098
407.95,81.1066
408.4321,81.48341
408.9142,81.39031
409.3964,80.9576
409.8785,80.78871
410.3606,81.13481
410.8427,81.43549
411.3248,81.72707
411.8069,81.90913
412.2891,81.82412
412.7712,81.45937
413.2533,81.03159
413.7354,80.84415
414.2175,80.97001
414.6996,81.04044
415.1818,81.09045
415.6639,81.04883
416.146,80.82247
416.6281,80.4766
417.1102,80.147
417.5923,79.88552
418.0745,79.73288
418.5566,79.87783
419.0387,80.51273
419.5208,81.01474
420.0029,81.12064
420.485,81.05379
420.9672,81.02452
421.4493,81.08614
421.9314,81.0961
422.4135,80.84665
422.8956,80.356
423.3777,79.9845
423.8599,79.76081
424.342,79.71447
424.8241,79.93887
425.3062,80.35909
425.7883,80.7035
426.2704,80.86682
426.7526,80.88609
427.2347,80.76024
427.7168,80.47702
428.1989,80.26275
428.681,80.25267
429.1631,80.3886
429.6453,80.51924
430.1274,80.64505
430.6095,80.7635
431.0916,80.94397
431.5737,81.105
432.0558,81.04862
432.538,80.70759
433.0201,80.27308
433.5022,79.96435
433.9843,79.80246
434.4664,79.60817
434.9485,79.16651
435.4307,78.86744
435.9128,79.09043
436.3949,79.7086
436.877,80.27787
437.3591,80.54231
437.8412,80.56033
438.3234,80.54722
438.8055,80.50222
439.2876,80.42619
439.7697,80.18571
440.2518,79.99041
440.7339,80.15215
441.216,80.67345
441.6982,81.15991
442.1803,81.12817
442.6624,80.48843
443.1445,79.98895
443.6266,79.57109
444.1087,79.36147
444.5909,79.55879
445.073,79.96427
445.5551,80.2549
446.0372,80.25489
446.5193,80.09645
447.0014,80.08726
447.4836,80.30186
447.9657,80.44277
448.4478,80.4347
448.9299,80.35004
449.412,80.20211
449.8941,80.00495
450.3763,79.81539
450.8584,79.66262
451.3405,79.55037
451.8226,79.49922
452.3047,79.50977
452.7868,79.58077
453.269,79.87017
453.7511,80.18077
454.2332,80.17315
454.7153,79.62511
455.1974,79.03981
455.6795,78.86091
456.1617,79.01015
456.6438,79.14565
457.1259,79.17099
457.608,79.15201
458.0901,79.21644
458.5722,79.37275
459.0544,79.34586
459.5365,78.95322
460.0186,78.45418
460.5007,78.00957
460.9828,77.65158
461.4649,77.47106
461.9471,77.5629
462.4292,77.8348
462.9113,77.89992
463.3934,77.66729
463.8755,77.36398
464.3576,76.89426
464.8398,76.428
465.3219,76.12032
465.804,76.00816
466.2861,76.07539
466.7682,76.33146
467.2503,76.81105
467.7325,77.15868
468.2146,77.4145
468.6967,77.4876
469.1788,77.23913
469.6609,76.81913
470.143,76.42362
470.6252,76.13546
471.1073,75.95092
471.5894,75.926
472.0715,76.1516
472.5536,76.13235
473.0357,75.40718
473.5179,74.75541
474.0,74.68958
474.4821,75.12212
474.9642,75.59731
475.4463,75.86404
475.9284,75.98483
476.4106,76.15697
476.8927,76.4304
477.3748,76.40837
477.8569,75.58068
478.339,74.52448
478.8211,74.22698
479.3033,74.96184
479.7854,75.5897
480.2675,75.33436
480.7496,74.6386
481.2317,74.3424
481.7138,74.60371
482.1959,74.9999
482.678,75.18552
483.1602,75.15276
483.6423,75.04797
484.1244,74.8524
484.6065,74.61095
485.0886,74.21472
485.5707,73.81079
486.0529,73.7037
486.535,74.00304
487.0171,74.45418
487.4992,74.63297
487.9813,74.43038
488.4634,74.24849
488.9456,74.06779
489.4277,73.92284
489.9098,73.86828
490.3919,73.86264
490.874,73.80075
491.3561,73.60406
491.8383,73.35471
492.3204,73.28372
492.8025,73.4334
493.2846,73.6454
493.7667,74.04438
494.2488,74.37929
494.731,74.46201
495.2131,74.29276
495.6952,74.02261
496.1773,73.62646
496.6594,73.21951
497.1415,73.19707
497.6237,73.6596
498.1058,74.06516
498.5879,74.0884
499.07,73.87093
499.5521,73.67593
500.0342,73.47353
500.5164,73.39784
500.9985,73.70006
501.4806,74.12492
501.9627,74.14706
502.4448,73.65431
502.9269,73.09512
503.4091,72.90943
503.8912,73.11331
504.3733,73.18645
504.8554,73.02921
505.3375,72.86885
505.8196,72.74911
506.3018,72.68908
506.7839,72.73347
507.266,72.89346
507.7481,73.09234
508.2302,73.18952
508.7123,73.10387
509.1945,73.21107
509.6766,73.81909
510.1587,74.31116
510.6408,74.34157
511.1229,74.09877
511.605,73.98134
512.0872,74.21701
512.5693,74.57448
513.0514,74.6093
513.5335,74.27562
514.0156,73.96632
514.4977,73.71542
514.9799,73.57182
515.462,73.6689
515.9441,73.94882
516.4262,74.03771
516.9083,73.50211
517.3904,72.84864
517.8726,72.80001
518.3547,73.32358
518.8368,73.86244
519.3189,74.18432
519.801,74.32949
520.2831,74.36693
520.7653,74.29764
521.2474,74.15085
521.7295,73.74954
522.2116,73.39908
522.6937,73.43349
523.1758,73.81541
523.658,74.25179
524.1401,74.54614
524.6222,74.69856
525.1043,74.70124
525.5864,74.36357
526.0685,74.14883
526.5507,74.17142
527.0328,74.27341
527.5149,74.32756
527.997,74.32028
528.4791,74.31479
528.9612,74.34789
529.4434,74.42775
529.9255,74.65148
530.4076,75.15506
530.8897,75.48401
531.3718,75.23615
531.8539,74.81145
532.3361,74.62103
532.8182,74.74619
533.3003,74.9625
533.7824,75.19893
534.2645,75.40775
534.7466,75.4455
535.2288,75.27963
535.7109,75.13538
536.193,75.18574
536.6751,75.40678
537.1572,75.62058
537.6393,75.92798
538.1215,76.10771
538.6036,76.02087
539.0857,75.80749
539.5678,75.55991
540.0499,75.3343
540.532,75.31595
541.0142,75.75404
541.4963,76.67068
541.9784,77.27547
542.4604,77.27931
542.9426,77.29556
543.4247,77.55241
543.9068,77.83299
544.3889,77.8287
544.871,77.47292
545.3531,77.08572
545.8353,77.07171
546.3174,77.39055
546.7995,77.53373
547.2816,77.36643
547.7637,77.25192
548.2458,77.49847
548.728,77.93079
549.2101,78.28275
549.6922,78.50936
550.1743,78.65121
550.6564,78.75076
551.1385,78.78177
551.6207,78.64925
552.1028,78.32944
552.5849,77.99624
553.067,77.79445
553.5491,77.72539
554.0313,77.81046
554.5134,78.10731
554.9955,78.46424
555.4776,78.87194
555.9597,79.30437
556.4418,79.75631
556.924,80.21569
557.4061,80.61144
557.8882,80.86681
558.3703,80.97922
558.8524,80.95988
559.3345,80.51212
559.8167,80.37501
560.2988,81.12402
560.7809,82.13485
561.263,82.56554
561.7451,82.15501
562.2272,81.69372
562.7094,81.99178
563.1915,82.80289
563.6736,83.29212
564.1557,83.33614
564.6378,83.18832
565.1199,82.89549
565.6021,82.56592
566.0842,82.6258
566.5663,83.45412
567.0484,84.1301
567.5305,84.21532
568.0126,84.03549
568.4948,83.94815
568.9769,84.03853
569.459,84.30333
569.9411,84.77253
570.4232,85.42739
570.9053,85.86937
571.3875,86.01003
571.8696,86.04227
572.3517,85.82906
572.8338,85.62999
573.3159,85.71516
573.798,86.10802
574.2802,86.5808
574.7623,86.97451
575.2444,87.28856
575.7265,87.50304
576.2086,87.59505
576.6907,87.68066
577.1729,87.79457
577.655,87.94605
578.1371,88.18308
578.6192,88.56084
579.1013,88.77684
579.5834,88.46801
580.0656,88.08489
580.5477,88.159
581.0298,88.69821
581.5119,89.43035
581.994,90.20712
582.4761,91.00634
582.9583,91.76392
583.4404,92.65025
583.9225,93.21706
584.4046,93.25089
584.8867,93.1577
585.3688,93.1652
585.851,93.28751
586.3331,93.44233
586.8152,93.55264
587.2973,93.71008
587.7794,94.23046
588.2615,95.21597
588.7437,95.8433
589.2258,95.71264
589.7079,95.37705
590.19,95.35399
590.6721,95.60023
591.1542,95.84304
591.6364,95.92665
592.1185,96.03664
592.6006,96.38267
593.0827,96.88815
593.5648,97.33524
594.0469,97.647
594.5291,97.84157
595.0112,97.91242
595.4933,97.77534
595.9754,97.91394
596.4575,98.67712
596.9396,99.28817
597.4218,99.26795
597.9039,99.00181
598.386,99.12415
598.8681,99.83653
599.3502,100.6329
599.8323,100.7611
600.3145,100.2607
600.7966,100.281
601.2787,101.0474
601.7608,101.9555
602.2429,102.763
602.725,103.4606
603.2072,103.9846
603.6893,104.2741
604.1714,104.5548
604.6535,104.979
605.1356,105.4494
605.6177,105.7873
606.0999,105.9888
606.582,106.2347
607.0641,106.6565
607.5462,107.2223
608.0283,107.7971
608.5104,108.4869
608.9926,109.0239
609.4747,109.209
609.9568,109.3977
610.4389,109.896
610.921,110.6413
611.4031,111.3253
611.8853,111.7161
612.3674,111.9908
612.8495,112.5496
613.3316,113.4207
613.8137,114.2983
614.2958,115.1789
614.778,115.9533
615.2601,116.403
615.7422,116.6031
616.2243,117.0303
616.7064,118.0147
617.1885,119.0221
617.6707,119.676
618.1528,120.11
618.6349,120.5542
619.117,121.0858
619.5991,121.7925
620.0812,122.8028
620.5634,124.1456
621.0455,125.4112
621.5276,126.6596
622.0097,127.7463
622.4918,128.5693
622.9739,129.2558
623.4561,129.8686
623.9382,130.4398
624.4203,131.1261
624.9023,132.1039
625.3845,133.2835
625.8666,134.4391
626.3487,135.5704
626.8308,136.6283
627.3129,137.5252
627.795,138.4034
628.2772,139.6033
628.7593,141.2075
629.2414,142.6571
629.7235,143.7569
630.2056,144.7827
630.6877,145.7705
631.1699,146.8584
631.652,148.3605
632.1341,150.4148
632.6162,152.7602
633.0983,155.0224
