Wavenumber (cm⁻¹),Intensity
200.0,-32.936
201.00097751710655,-28.808969696969704
202.0019550342131,-24.681939393939402
203.00293255131965,-20.554909090909103
204.0039100684262,-16.427878787878804
205.00488758553274,-12.300848484848505
206.0058651026393,-8.173818181818206
207.00684261974584,-4.046787878787904
208.0078201368524,0.08024242424239514
209.00879765395894,4.207272727272694
210.00977517106548,8.2942834799609
211.01075268817203,8.326634408602148
212.01173020527858,8.657328445747803
213.01270772238513,8.341023460410565
214.01368523949168,7.7877096774193655
215.01466275659823,6.95373607038125
216.01564027370478,5.570338220918885
217.01661779081132,4.238042033235553
218.01759530791787,6.116067448680314
219.01857282502445,8.456769305962885
220.019550342131,11.042876832844609
221.02052785923755,14.217847507331413
222.0215053763441,17.654279569892477
223.02248289345064,18.03135972629521
224.0234604105572,18.051199413489737
225.02443792766374,18.231718475073315
226.0254154447703,18.4810439882698
227.02639296187684,19.34068035190617
228.02737047898339,21.326971652003916
229.02834799608993,22.839911045943303
230.02932551319648,22.33374486803519
231.03030303030303,21.56530303030303
232.03128054740958,21.617541544477028
233.03225806451613,21.91548387096774
234.03323558162268,20.972258064516133
235.03421309872923,18.304086021505388
236.03519061583577,14.973337243401765
237.03616813294232,13.302754643206264
238.03714565004887,11.56967155425221
239.03812316715542,9.556346041055733
240.03910068426197,7.275259042033253
241.04007820136852,4.86544086021507
242.04105571847506,2.816381231671575
243.0420332355816,0.5712306940371483
244.0430107526882,0.33538709677420686
245.04398826979474,1.1020117302052963
246.0449657869013,2.1615347018573035
247.04594330400784,3.487012707722405
248.04692082111438,4.717073313782979
249.04789833822093,3.938356793743883
250.04887585532748,3.223545454545418
251.04985337243403,0.6301524926686765
252.05083088954058,5.4450224828935125
253.05180840664713,11.349505376344162
254.05278592375367,18.990545454545522
255.05376344086022,26.799698924731267
256.05474095796677,37.696520039100754
257.0557184750733,48.28340762463348
258.05669599217987,55.802455522971684
259.0576735092864,61.54739784946239
260.05865102639297,66.9206099706745
261.0596285434995,71.24702541544478
262.06060606060606,75.82324242424244
263.0615835777126,80.5612668621701
264.06256109481916,85.29420136852394
265.0635386119257,87.46166177908113
266.06451612903226,87.93309677419354
267.0654936461388,86.36191300097754
268.06647116324535,77.64595992179866
269.0674486803519,69.39917008797657
270.06842619745845,62.316329423264946
271.069403714565,56.17281231671554
272.07038123167155,56.02848387096771
273.0713587487781,60.92551221896377
274.07233626588464,69.82267350928623
275.0733137829912,90.05893548387077
276.07429130009774,111.64226686216975
277.0752688172043,144.29123655913938
278.07624633431084,179.26395601172976
279.0772238514174,214.5067399804492
280.07820136852393,249.77881036168085
281.0791788856305,281.2176363636361
282.08015640273703,297.5474213098727
283.0811339198436,312.075989247312
284.08211143695013,300.6624369501469
285.0830889540567,283.3073597262957
286.0840664711632,255.99891788856377
287.0850439882698,218.69831378299196
288.0860215053764,181.6046989247299
289.0869990224829,144.77930400781887
290.0879765395895,108.65052199413394
291.088954056696,80.432961876832
292.0899315738026,54.80685434995049
293.0909090909091,35.52699999999962
294.09188660801567,23.11109970674452
295.0928641251222,11.979783968719296
296.09384164222877,6.605879765395741
297.0948191593353,1.6467986314760328
298.09579667644186,1.2581964809384734
299.0967741935484,3.2945806451613167
300.09775171065496,4.187636363636354
301.0987292277615,3.8230723362658776
302.09970674486806,3.4413460410556915
303.1006842619746,2.2905992179862955
304.10166177908116,1.3537937438904872
305.1026392961877,0.21003812316718654
306.10361681329425,1.7488905180840977
307.1045943304008,3.3699687194526238
308.10557184750735,5.132392961876861
309.1065493646139,6.799220918866115
310.10752688172045,8.867451612903254
311.108504398827,10.667266862170111
312.10948191593354,12.19956011730207
313.1104594330401,13.51834604105574
314.11143695014664,15.026134897360722
315.1124144672532,16.36954936461389
316.11339198435974,16.871527859237535
317.1143695014663,16.606340175953072
318.11534701857283,15.953698924731182
319.1163245356794,15.763684261974582
320.11730205278593,15.523879765395895
321.1182795698925,15.753268817204304
322.119257086999,16.373810361681336
323.1202346041056,17.142601173020534
324.1212121212121,18.501666666666672
325.1221896383187,19.86957869012708
326.1231671554252,21.90075953079179
327.12414467253177,24.030070381231674
328.1251221896383,26.302164222873902
329.12609970674487,28.623181818181816
330.1270772238514,30.444556207233624
331.12805474095796,31.1416568914956
332.1290322580645,31.546677419354847
333.13000977517106,29.596678396871955
334.1309872922776,27.265057673509304
335.13196480938416,24.038524926686243
336.1329423264907,20.174032258064543
337.13391984359725,16.60092766373414
338.1348973607038,13.637480938416449
339.13587487781035,10.759138807429157
340.1368523949169,8.245879765395921
341.13782991202345,5.87999413489738
342.13880742913,4.300510263929633
343.13978494623655,3.1533225806451766
344.1407624633431,2.027598240469224
345.14173998044964,0.9269130009775334
346.1427174975562,0.03140371456500202
347.14369501466274,0.20828445747800298
348.1446725317693,0.3749902248289318
349.14565004887584,0.5245171065493621
350.1466275659824,0.5825483870967818
351.14760508308893,0.3558475073313641
352.1485826001955,1.1303225806451342
353.14956011730203,2.448064516128995
354.1505376344086,4.124408602150498
355.1515151515151,5.615909090909081
356.1524926686217,5.930982404692082
357.1534701857282,5.980521016617784
358.1544477028348,6.2717683284457335
359.1554252199413,6.785530791788842
360.15640273704787,7.3190830889540415
361.1573802541544,7.862041055718459
362.15835777126097,8.396087976539572
363.1593352883675,8.925376344086006
364.16031280547406,9.479753665689126
365.1612903225806,10.255870967741904
366.16226783968716,11.234295210166135
367.1632453567937,12.607491691104526
368.16422287390026,14.562205278592305
369.1652003910068,16.59782013685231
370.16617790811335,19.02690518084057
371.1671554252199,21.26558651026391
372.16813294232645,21.595783968719477
373.169110459433,20.919463343108546
374.17008797653955,19.749140762463416
375.1710654936461,17.904184750733222
376.1720430107527,15.690569892473071
377.17302052785925,12.476950146627523
378.1739980449658,9.32532160312802
379.17497556207235,6.4740175953078865
380.1759530791789,3.894287390029308
381.17693059628544,2.398441837732155
382.177908113392,1.824414467253172
383.17888563049854,1.2530351906158312
384.1798631476051,0.6824780058650987
385.18084066471164,0.24031769305962938
386.1818181818182,0.46045454545454845
387.18279569892474,0.9476129032258068
388.1837732160313,0.960629521016617
389.18475073313783,0.6750703812316703
390.1857282502444,0.3680791788856314
391.18670576735093,1.023322580645162
392.1876832844575,2.1147008797653957
393.188660801564,3.213092864125121
394.1896383186706,4.50737829912023
395.1906158357771,6.677768328445741
396.1915933528837,9.273127077223839
397.1925708699902,12.723412512218944
398.19354838709677,16.95880645161288
399.1945259042033,21.472553274682276
400.19550342130987,26.566480938416387
401.1964809384164,31.483771260997035
402.19745845552296,35.583622678396836
403.1984359726295,39.104582600195485
404.19941348973606,41.12261583577711
405.2003910068426,42.39038514173997
406.20136852394916,43.17497947214076
407.2023460410557,43.1561202346041
408.20332355816225,42.963494623655926
409.20430107526886,42.1503333333333
410.2052785923754,40.84656598240456
411.20625610948196,37.476157380253994
412.2072336265885,33.414264907135696
413.20821114369505,28.63860410557165
414.2091886608016,23.44654740957949
415.21016617790815,18.92490615835765
416.2111436950147,15.554771260996953
417.21212121212125,12.70024242424238
418.2130987292278,11.36572825024433
419.21407624633434,10.070574780058628
420.2150537634409,9.435763440860203
421.21603128054744,9.021841642228726
422.217008797654,8.485354838709654
423.21798631476054,7.597969696969663
424.2189638318671,6.522325513196457
425.21994134897363,5.674956011730179
426.2209188660802,4.861073313782983
427.22189638318673,4.541445747800578
428.2228739002933,4.10517595307916
429.2238514173998,3.282493646138782
430.2248289345064,2.2224799608992916
431.2258064516129,1.1997096774193348
432.2267839687195,0.48786608015640265
433.227761485826,0.4705620723362647
434.22873900293257,0.4501612903225828
435.2297165200391,0.5977126099706795
436.23069403714567,0.9118123167155505
437.2316715542522,1.236686217008796
438.23264907135876,1.0485122189638238
439.2336265884653,0.5546999022482826
440.23460410557186,0.6759120234604387
441.2355816226784,2.6712111436950403
442.23655913978496,5.126462365591448
443.2375366568915,9.158246334310896
444.23851417399806,14.035458455523052
445.2394916911046,21.962758553274764
446.24046920821115,31.24846920821124
447.2414467253177,43.063365591397954
448.24242424242425,56.8000303030304
449.2434017595308,71.42241055718485
450.24437927663735,87.67169696969705
451.2453567937439,102.65179472140767
452.24633431085044,113.69697947214081
453.247311827957,121.9693870967742
454.24828934506354,120.86984652981427
455.2492668621701,115.50482697947214
456.25024437927664,103.39099706744868
457.2512218963832,85.91948484848487
458.25219941348973,68.06804985337247
459.2531769305963,49.578127077223904
460.25415444770283,32.5611417399805
461.2551319648094,19.64289442815255
462.2561094819159,8.38523460410561
463.2570869990225,2.7788142717497673
464.258064516129,1.4048709677419369
465.2590420332356,1.961093841642207
466.2600195503421,5.935091886607944
467.26099706744867,15.692131964809231
468.2619745845552,31.107631476050663
469.26295210166177,50.18908504398793
470.2639296187683,79.26320234604069
471.26490713587486,109.83950048875809
472.2658846529814,144.69580547409527
473.26686217008796,178.24981231671512
474.2678396871945,202.03793939393913
475.26881720430106,216.41753763440846
476.2697947214076,217.64674193548416
477.27077223851416,201.30165786901298
478.2717497556207,182.32530987292333
479.27272727272725,154.20300000000057
480.2737047898338,128.62305083088995
481.27468230694035,109.6708484848489
482.2756598240469,92.11250439882733
483.27663734115345,78.80388954056721
484.27761485826,68.39333626588491
485.27859237536654,57.621536656891784
486.2795698924731,46.4118064516132
487.28054740957964,35.34146823069433
488.2815249266862,24.567102639296497
489.2825024437928,14.943471163245174
490.28347996089934,8.485807429129855
491.2844574780059,3.1486011730204257
492.28543499511244,0.9232326490714138
493.286412512219,3.090101661779128
494.28739002932554,4.6465219941349085
495.2883675464321,4.971832844574779
496.28934506353863,3.502264907135771
497.2903225806452,1.420935483871066
498.29130009775173,7.838743890518279
499.2922776148583,18.16023069403734
500.2932551319648,30.854909090909395
501.2942326490714,49.204611925709045
502.2952101661779,72.05558944281569
503.2961876832845,102.85664516129088
504.297165200391,141.94242424242483
505.29814271749757,191.25350635386204
506.2991202346041,255.29766862170166
507.30009775171067,329.9735063538623
508.3010752688172,429.17237634408707
509.30205278592376,532.2249677419366
510.3030303030303,646.6672121212131
511.30400782013686,754.1813929618775
512.3049853372434,830.0595630498505
513.3059628543499,876.0717741935473
514.3069403714564,871.7767575757607
515.307917888563,809.2840381231706
516.3088954056695,726.8040811339262
517.3098729227761,607.5549667644249
518.3108504398826,494.53599706745416
519.3118279569892,396.097784946242
520.3128054740957,307.11563831867477
521.3137829912023,238.2480762463378
522.3147605083088,181.76424633431373
523.3157380254154,137.87862756598443
524.3167155425219,105.21588269794906
525.3176930596285,78.34170087976659
526.318670576735,59.03985532746944
527.3196480938416,42.360070381232376
528.3206256109481,31.26093450635457
529.3216031280547,21.470577712610435
530.3225806451612,14.677967741935886
531.3235581622678,9.182083088954343
532.3245356793743,5.328155425220143
533.3255131964809,2.5517888563051474
534.3264907135874,0.7317829912023947
535.327468230694,0.6221974584554453
536.3284457478005,1.494064516129004
537.3294232649071,1.9171348973606694
538.3304007820136,2.1540694037145833
539.3313782991202,1.9313225806451735
540.3323558162267,1.5953304007820646
541.3333333333333,0.8760000000000604
542.3343108504398,0.3376480938416437
543.3352883675464,0.49767350928637255
544.3362658846529,1.0081329423264516
545.3372434017595,1.5652785923753136
546.338220918866,2.202815249266816
547.3391984359725,2.872657869012639
548.3401759530791,3.68366862170082
549.3411534701856,4.36659824046916
550.3421309872922,4.889826001955001
551.3431085043987,5.277950146627535
552.3440860215054,5.590161290322587
553.345063538612,5.719584555229717
554.3460410557185,5.703926686217008
555.347018572825,5.528229716520028
556.3479960899316,4.963127077223832
557.3489736070381,4.227703812316701
558.3499511241447,3.883340175953084
559.3509286412512,4.0620772238514204
560.3519061583578,4.030999999999993
561.3528836754643,3.667082111436942
562.3538611925709,3.1325268817204153
563.3548387096774,2.316354838709661
564.355816226784,1.6526715542521953
565.3567937438905,1.6420039100684327
566.3577712609971,1.920181818181819
567.3587487781036,1.7501319648093756
568.3597262952102,1.1987341153470117
569.3607038123167,1.0040322580645205
570.3616813294233,1.3452052785923798
571.3626588465298,1.5586803519061578
572.3636363636364,1.5012727272727264
573.3646138807429,1.6650283479960954
574.3655913978495,2.351677419354846
575.366568914956,3.4055307917888666
576.3675464320626,4.957874877810374
577.3685239491691,6.673050830889549
578.3695014662757,7.971680351906164
579.3704789833822,8.919033235581628
580.3714565004888,10.055095796676447
581.3724340175953,11.453856304985342
582.3734115347019,12.052245356793744
583.3743890518084,11.249882697947214
584.375366568915,10.150434017595309
585.3763440860215,8.546591397849465
586.377321603128,6.957617790811343
587.3782991202346,5.62436656891496
588.3792766373411,4.4104545454545505
589.3802541544477,3.2173841642228798
590.3812316715542,2.2554428152492703
591.3822091886608,1.6704555229716553
592.3831867057673,1.1053958944281574
593.3841642228739,0.7757595307917873
594.3851417399804,0.9675620723362641
595.386119257087,1.0043010752688193
596.3870967741935,0.7757419354838738
597.3880742913001,0.6464936461388066
598.3890518084066,0.7852052785923723
599.3900293255132,0.9401407624633428
600.3910068426197,0.893438905180843
601.3919843597263,0.788944281524927
602.3929618768328,0.8271202346041036
603.3939393939394,0.8852727272727281
604.3949169110459,0.5341681329423413
605.3958944281525,0.33887976539588
606.396871945259,0.601151515151525
607.3978494623656,0.24868817204301352
608.3988269794721,0.19791202346040893
609.3998044965787,0.23460410557184797
610.4007820136852,0.207171065493647
611.4017595307918,0.16410850439882824
612.4027370478983,0.10561388074291472
613.4037145650049,0.046832844574781235
614.4046920821114,0.06208797653958663
615.405669599218,0.17430303030302685
616.4066471163245,0.2536930596285431
617.4076246334312,0.3565689149560312
618.4086021505377,0.7988172043011372
619.4095796676443,1.1728289345063403
620.4105571847508,0.9803401759530602
621.4115347018574,0.879215053763448
622.4125122189639,1.1331309872923168
623.4134897360705,1.705067448680406
624.414467253177,2.398541544477083
625.4154447702836,3.19328641251229
626.4164222873901,4.218715542522083
627.4173998044967,5.31957380254162
628.4183773216032,6.193751710654987
629.4193548387098,6.806967741935522
630.4203323558163,6.982422287390008
631.4213098729228,6.674652981427152
632.4222873900294,5.967008797653872
633.423264907136,4.802413489735995
634.4242424242425,3.8987575757575295
635.425219941349,3.2663724340175557
636.4261974584556,2.559651026392903
637.4271749755621,1.6336695992179207
638.4281524926687,0.8609149560116989
639.4291300097752,0.5801339198435962
640.4301075268818,0.5744408602150542
641.4310850439883,0.5927947214076266
642.4320625610949,0.6775376344086117
643.4330400782014,1.0005738025415776
644.434017595308,1.5559560117302393
645.4349951124145,2.1372570869990577
646.4359726295211,2.7460469208211506
647.4369501466276,3.56859530791795
648.4379276637342,4.679054740958032
649.4389051808407,5.688974584555275
650.4398826979473,6.479392961876873
651.4408602150538,7.233580645161331
652.4418377321604,8.01249364613885
653.4428152492669,8.624483870967762
654.4437927663735,8.795064516129028
655.44477028348,8.663054740957959
656.4457478005866,8.349920821114345
657.4467253176931,7.829833822091859
658.4477028347997,7.0982639296187235
659.4486803519062,6.163868035190573
660.4496578690128,5.452653958944261
661.4506353861193,5.012128054740939
662.4516129032259,4.4143548387096425
663.4525904203324,3.606496578690092
664.453567937439,2.815927663734083
665.4545454545455,2.068090909090879
666.455522971652,1.5630410557184655
667.4565004887586,1.4769110459433077
668.4574780058651,1.3678826979472005
669.4584555229717,0.7786852394916581
670.4594330400782,0.2927575757575746
671.4604105571848,0.2442316715542497
672.4613880742913,0.17147311827956718
673.4623655913979,0.10272043010752487
674.4633431085044,0.05107624633430941
675.464320625611,0.015463343108503523
676.4652981427175,0.008444770283480466
677.4662756598241,0.017466275659824077
678.4672531769306,0.010056695992179357
679.4682306940372,0.008491691104594794
680.4692082111437,0.013246334310850216
681.4701857282503,0.12231476050831543
682.4711632453568,0.4262150537634507
683.4721407624634,0.7873607038123255
684.4731182795699,1.1270752688172125
685.4740957966765,1.372166177908117
686.475073313783,1.349284457478001
687.4760508308896,1.1832541544477002
688.4770283479961,1.2226989247311872
689.4780058651027,1.417563049853376
690.4789833822092,1.585242424242427
691.4799608993158,1.7293548387096798
692.4809384164223,1.8456129032258082
693.4819159335289,1.9225415444770293
694.4828934506354,1.7495992179863082
695.483870967742,1.2679032258064435
696.4848484848485,1.019848484848486
697.485826001955,1.2411847507331426
698.4868035190616,1.4948504398826994
699.4877810361681,1.5263186705767344
700.4887585532747,1.4480117302052777
701.4897360703812,1.3437214076246322
702.4907135874878,1.2859442815249267
703.4916911045943,1.4296236559139806
704.4926686217009,1.7420146627566004
705.4936461388074,2.145520039100687
706.494623655914,2.654548387096777
707.4956011730205,3.0891055718475084
708.4965786901271,3.335901270772239
709.4975562072336,3.2752306940371447
710.4985337243402,2.9749413489736067
711.4995112414467,2.869455522971652
712.5004887585533,3.013596285434995
713.5014662756598,2.987636363636364
714.5024437927664,2.643427174975563
715.5034213098729,2.325826001955035
716.5043988269795,2.1972316715542526
717.505376344086,1.9921397849462381
718.5063538611926,1.5232639296187718
719.5073313782991,0.9367184750733177
720.5083088954057,0.3485894428152538
721.5092864125122,0.164440860215052
722.5102639296188,0.14963929618768546
723.5112414467253,0.1336246334310831
724.5122189638319,0.11997067448680582
725.5131964809384,0.11188856304985122
726.514173998045,0.319802541544474
727.5151515151515,0.5602424242424209
728.516129032258,0.5767741935483901
729.5171065493646,0.37502737047898654
730.5180840664711,0.30808504398826886
731.5190615835777,0.6904809384164106
732.5200391006842,1.5630009775170874
733.5210166177908,2.6766314760508085
734.5219941348973,4.007941348973578
735.5229716520039,5.540341153470153
736.5239491691104,7.190953079178849
737.524926686217,8.970865102639255
738.5259042033235,10.933621700879716
739.5268817204301,13.079935483870912
740.5278592375366,15.383360703812256
741.5288367546432,17.92210948191586
742.5298142717497,20.588127077223778
