Raman Shift,Intensity
114.254,10838.0
115.644,11193.0
117.034,11560.0
118.424,11410.0
119.813,11201.0
121.203,11067.0
122.592,11716.0
123.981,12117.0
125.369,12451.0
126.758,12718.135
128.146,13065.727
129.534,13439.717
130.922,13627.0
132.309,14200.0
133.696,14411.0
135.083,14712.0
136.47,14725.0
137.857,15056.0
139.243,14948.0
140.63,14912.0
142.016,14790.0
143.401,14877.0
144.787,14788.0
146.172,14701.049
147.557,14722.0
148.942,14383.0
150.327,14229.0
151.711,13832.0
153.096,13837.0
154.48,14144.0
155.863,14521.0
157.247,15138.0
158.63,16072.0
160.013,17226.0
161.396,18316.0
162.779,19396.0
164.161,19701.0
165.544,20036.0
166.926,19595.0
168.308,19045.0
169.689,18105.0
171.07,17330.0
172.452,16302.0
173.833,15606.0
175.213,14861.0
176.594,14423.0
177.974,13888.0
179.354,13324.0
180.734,12924.0
182.114,12767.0
183.493,12424.0
184.872,12274.0
186.251,12274.0
187.63,11954.0
189.008,11866.0
190.387,11724.0
191.765,11660.0
193.143,11678.0
194.52,11636.0
195.898,11635.0
197.275,11532.0
198.652,11610.0
200.029,11576.0
201.405,11675.0
202.782,11579.0
204.158,11730.0
205.534,11721.0
206.909,11914.0
208.285,11981.0
209.66,11665.0
211.035,11294.0
212.41,11246.0
213.784,11038.0
215.159,11172.0
216.533,11074.0
217.907,11200.0
219.281,11264.0
220.654,11421.0
222.027,11558.0
223.4,11646.0
224.773,11837.0
226.146,11939.0
227.518,12320.0
228.891,12565.0
230.263,13090.0
231.634,13337.0
233.006,13814.0
234.377,14389.0
235.748,15001.0
237.119,15925.0
238.49,16840.902
239.86,17800.0
241.231,19084.0
242.601,20388.0
243.97,21697.0
245.34,22599.0
246.709,23421.0
248.079,23753.0
249.448,23212.0
250.816,22648.0
252.185,21351.0
253.553,20342.0
254.921,19000.0
256.289,17920.0
257.657,17274.0
259.024,16508.0
260.391,15997.377
261.758,15550.564
263.125,15385.0
264.492,14961.0
265.858,15025.0
267.224,15010.0
268.59,14998.0
269.956,15038.0
271.321,14915.0
272.687,15097.0
274.052,15115.0
275.416,14906.0
276.781,14736.0
278.146,14760.0
279.51,14601.0
280.874,14461.0
282.237,14592.0
283.601,14457.0
284.964,14706.0
286.327,14821.087
287.69,14743.0
289.053,15245.0
290.416,15511.0
291.778,15779.0
293.14,16313.0
294.502,16275.0
295.863,16621.0
297.225,16480.0
298.586,16278.0
299.947,15732.0
301.308,15205.0
302.668,14802.0
304.029,14224.0
305.389,14030.0
306.749,13717.0
308.108,13704.0
309.468,13465.66
310.827,13384.0
312.186,13222.0
313.545,13288.0
314.903,13338.0
316.262,13481.0
317.62,13573.0
318.978,13608.0
320.336,13721.0
321.693,13885.0
323.051,13954.0
324.408,14184.0
325.765,14475.0
327.121,14638.0
328.478,15123.0
329.834,15323.0
331.19,15759.0
332.546,16216.0
333.902,16631.0
335.257,17017.0
336.612,17924.0
337.967,18512.0
339.322,18732.0
340.677,19577.0
342.031,20697.0
343.385,22065.0
344.739,23482.0
346.093,25351.0
347.446,26456.0
348.799,27314.0
350.153,27544.0
351.505,27056.0
352.858,26001.0
354.21,24061.0
355.563,22358.0
356.915,20729.0
358.267,19011.0
359.618,17823.0
360.969,16796.0
362.321,15905.0
363.672,15385.0
365.022,14730.0
366.373,14336.0
367.723,14171.0
369.073,13598.0
370.423,13480.0
371.773,13131.0
373.122,12989.0
374.471,12712.0
375.821,12596.0
377.169,12536.0
378.518,12311.0
379.866,12402.0
381.215,12288.0
382.563,12338.0
383.91,12464.0
385.258,12350.0
386.605,12589.0
387.952,12530.0
389.299,12760.0
390.646,12736.0
391.992,12742.0
393.339,12702.0
394.685,12620.0
396.031,12681.0
397.376,12597.0
398.722,12644.0
400.067,12505.0
401.412,12514.0
402.757,12464.0
404.101,12480.0
405.446,12480.0
406.79,12492.0
408.134,12378.0
409.478,12437.0
410.821,12510.0
412.165,12608.0
413.508,12875.0
414.851,12939.0
416.193,13495.0
417.536,13697.0
418.878,14030.0
420.22,14525.0
421.562,15220.0
422.904,15754.0
424.245,16208.0
425.586,16760.0
426.927,17202.0
428.268,17498.0
429.609,17783.0
430.949,17900.0
432.289,18103.0
433.629,18631.0
434.969,19078.0
436.309,19500.0
437.648,20058.0
438.987,20906.0
440.326,22114.0
441.665,23410.0
443.003,24899.0
444.342,26988.0
445.68,29508.0
447.018,31603.0
448.355,33671.0
449.693,34618.0
451.03,34234.0
452.367,34020.0
453.704,32629.0
455.041,31638.0
456.377,29670.0
457.713,28714.0
459.049,27678.0
460.385,26535.0
461.721,25581.0
463.056,24697.0
464.391,24095.0
465.726,23324.0
467.061,22401.0
468.395,22101.0
469.73,21042.0
471.064,20243.0
472.398,19901.0
473.731,19017.0
475.065,18958.0
476.398,18253.0
477.731,18165.0
479.064,17882.0
480.397,17792.0
481.729,17652.0
483.062,17392.0
484.394,17319.0
485.725,17280.0
487.057,17379.0
488.389,17195.0
489.72,17020.0
491.051,16899.0
492.382,16765.0
493.712,16837.0
495.043,16742.0
496.373,16860.0
497.703,16885.0
499.032,17005.0
500.362,17262.0
501.691,17529.0
503.02,17934.0
504.349,18388.0
505.678,18784.0
507.007,19092.0
508.335,19590.0
509.663,19946.0
510.991,19902.725
512.319,19836.0
513.646,19629.0
514.973,18905.0
516.3,18562.0
517.627,17951.0
518.954,17524.0
520.28,17257.0
521.607,16970.0
522.933,17025.0
524.259,16923.0
525.584,16890.0
526.91,16600.0
528.235,16001.0
529.56,15664.0
530.885,15215.0
532.209,14683.0
533.534,14127.0
534.858,13916.0
536.182,13793.0
537.506,13484.0
538.829,13406.0
540.152,13434.0
541.476,13425.0
542.799,13236.0
544.121,13358.0
545.444,13136.0
546.766,13462.0
548.088,13440.0
549.41,13525.0
550.732,13662.0
552.053,13933.0
553.375,14113.0
554.696,14340.0
556.017,14564.0
557.337,15110.0
558.658,15744.0
559.978,16490.0
561.298,17270.0
562.618,18822.0
563.938,20540.0
565.257,22080.0
566.576,23642.0
567.895,24492.0
569.214,23825.0
570.533,22720.0
571.851,20767.0
573.17,18828.0
574.488,17458.0
575.805,16616.0
577.123,15789.0
578.44,15403.0
579.758,15067.0
581.075,14848.0
582.391,15100.0
583.708,15004.0
585.024,15215.0
586.341,15161.0
587.657,15462.0
588.972,15682.0
590.288,16236.0
591.603,16458.0
592.918,16700.0
594.233,16946.0
595.548,17792.0
596.863,18316.0
598.177,18793.0
599.491,19193.0
600.805,19792.0
602.119,20093.0
603.432,19915.0
604.746,19641.0
606.059,19204.0
607.372,18649.0
608.685,18163.0
609.997,17568.0
611.309,17278.0
612.621,16892.0
613.933,16440.0
615.245,16232.0
616.557,15964.0
617.868,15612.0
619.179,15394.0
620.49,15037.0
621.801,14703.0
623.111,14375.0
624.421,14341.0
625.731,14061.0
627.041,14227.0
628.351,13760.0
629.66,13826.0
630.97,13712.0
632.279,13712.0
633.588,13869.0
634.896,13651.0
636.205,13558.0
637.513,13466.0
638.821,13604.0
640.129,13458.0
641.437,13550.0
642.744,13661.0
644.051,13603.0
645.358,13545.0
646.665,13550.0
647.972,13606.0
649.278,13666.0
650.584,13682.0
651.89,13775.0
653.196,13694.0
654.502,13955.0
655.807,13678.0
657.113,13886.0
658.418,13728.0
659.722,13853.0
661.027,13998.0
662.331,13931.0
663.636,13855.0
664.94,13792.0
666.244,13800.0
667.547,13808.0
668.851,13858.0
670.154,13684.0
671.457,13941.0
672.76,13812.0
674.062,13812.0
675.365,13998.0
676.667,13879.0
677.969,13977.0
679.271,14076.0
680.572,14150.0
681.874,14284.0
683.175,14326.557
684.476,14460.0
685.777,14443.0
687.077,14555.0
688.378,14643.0
689.678,14454.0
690.978,14656.0
692.278,14508.0
693.577,14481.0
694.877,14061.0
696.176,14454.0
697.475,14177.0
698.774,14299.0
700.072,14270.0
701.371,14144.0
702.669,14128.0
703.967,14054.0
705.265,13776.0
706.562,14003.0
707.86,13855.0
709.157,14205.0
710.454,13514.0
711.751,13645.0
713.047,13433.0
714.344,13544.0
715.64,13433.0
716.936,13526.0
718.232,13323.0
719.527,13362.0
720.823,13347.0
722.118,13454.0
723.413,13270.0
724.708,13335.0
726.002,13332.0
727.297,13162.0
728.591,13333.0
729.885,13220.0
731.179,13267.0
732.472,13291.0
733.766,13325.0
735.059,13207.0
736.352,13110.0
737.645,13373.0
738.937,13208.0
740.23,13195.0
741.522,13285.0
742.814,13214.0
744.106,13106.0
745.397,13277.0
746.689,13214.0
747.98,13208.0
749.271,13050.0
750.562,13224.0
751.853,13109.0
753.143,13326.0
754.433,13161.0
755.723,13238.0
757.013,13184.0
758.303,13233.0
759.592,13276.0
760.881,13110.0
762.17,13139.0
763.459,13144.0
764.748,13288.0
766.036,13235.0
767.325,13193.0
768.613,13374.0
769.901,13137.0
771.188,13275.0
772.476,13273.0
773.763,13196.0
775.05,13492.0
776.337,13298.0
777.624,13380.0
778.91,13287.0
780.196,13320.0
781.482,13386.0
782.768,13418.0
784.054,13454.0
785.339,13310.0
786.625,13366.0
787.91,13459.0
789.195,13328.0
790.479,13498.0
791.764,13501.0
793.048,13376.0
794.332,13537.0
795.616,13435.0
796.9,13584.0
798.183,13660.0
799.467,13556.0
800.75,13568.0
802.033,13636.0
803.316,13627.0
804.598,13662.0
805.88,13874.0
807.163,13708.0
808.445,13968.0
809.726,13754.0
811.008,13900.0
812.289,13850.0
813.57,14206.0
814.851,14219.0
816.132,14082.0
817.413,14033.0
818.693,14126.0
819.973,14128.0
821.253,14246.0
822.533,14334.0
823.813,14328.0
825.092,14393.0
826.371,14505.0
827.65,14541.0
828.929,14545.0
830.208,14658.0
831.486,14810.0
832.764,14776.0
834.042,14715.0
835.32,14741.0
836.598,14996.0
837.875,14795.0
839.152,15153.0
840.429,15088.0
841.706,15251.0
842.983,15532.0
844.259,15597.0
845.536,15815.0
846.812,15907.0
848.088,15811.0
849.363,16008.0
850.639,15940.0
851.914,16436.0
853.189,16671.0
854.464,16569.0
855.739,17058.0
857.013,17388.0
858.288,17666.0
859.562,17778.0
860.836,18265.0
862.11,18717.0
863.383,19403.0
864.656,19682.0
865.93,20497.0
867.203,20876.0
868.475,21596.0
869.748,22336.0
871.02,22651.0
872.292,23052.0
873.564,23769.0
874.836,24317.0
876.108,25163.0
877.379,25382.0
878.65,25961.0
879.922,26620.0
881.192,26754.0
882.463,26657.0
883.733,26565.0
885.004,26357.0
886.274,26068.0
887.544,26204.0
888.813,26154.0
890.083,26235.0
891.352,25782.0
892.621,25811.0
893.89,25264.0
895.159,24431.0
896.427,23908.0
897.695,22961.0
898.964,22426.0
900.232,21675.0
901.499,20944.0
902.767,20764.0
904.034,20383.0
905.301,20453.0
906.568,20064.0
907.835,20387.0
909.102,20723.0
910.368,20544.0
911.634,20626.0
912.9,20841.0
914.166,20627.0
915.432,20677.0
916.697,20416.0
917.962,20146.0
919.227,19705.0
920.492,19572.0
921.757,19118.0
923.021,18690.0
924.285,18219.0
925.55,17966.262
926.813,17681.885
928.077,17542.0
929.341,17318.0
930.604,17217.0
931.867,17096.0
933.13,16979.0
934.393,16675.0
935.655,16721.0
936.918,16678.0
938.18,16392.0
939.442,16707.0
940.703,16472.0
941.965,16402.0
943.226,16357.0
944.488,16407.0
945.749,16315.0
947.009,16170.0
948.27,16348.0
949.53,16174.0
950.791,16356.0
952.051,16256.0
953.311,16330.0
954.57,16216.0
955.83,16234.0
957.089,16391.0
958.348,16289.0
959.607,16352.0
960.866,16242.0
962.124,16407.0
963.383,16306.0
964.641,16375.0
965.899,16430.0
967.156,16520.0
968.414,16600.0
969.671,16608.0
970.928,16605.0
972.185,16995.0
973.442,17034.0
974.699,17346.0
975.955,17514.0
977.211,17740.0
978.468,18223.0
979.723,18427.0
980.979,18843.0
982.234,19179.0
983.49,19093.0
984.745,19354.0
986.0,18668.0
987.254,18763.0
988.509,18420.0
989.763,17985.0
991.017,17879.0
992.271,17592.0
993.525,17354.0
994.779,17171.0
996.032,17218.0
997.285,17137.0
998.538,16951.0
999.791,16938.0
1001.044,16706.0
1002.296,16698.676
1003.548,16705.0
1004.8,16653.0
1006.052,16756.0
1007.304,16775.0
1008.555,16754.0
1009.807,16697.0
1011.058,16737.0
1012.309,16957.0
1013.559,17089.0
1014.81,17250.0
1016.06,17314.0
1017.31,17314.0
1018.56,17530.0
1019.81,17611.0
1021.06,18117.0
1022.309,18188.0
1023.558,18266.0
1024.807,18113.0
1026.056,18393.0
1027.305,18122.0
1028.553,18097.0
1029.801,18100.0
1031.049,18277.0
1032.297,17915.0
1033.545,17821.0
1034.793,17879.0
1036.04,18102.0
1037.287,17917.0
1038.534,18050.0
1039.781,18072.0
1041.027,18102.0
1042.274,18414.0
1043.52,18200.0
1044.766,18273.0
1046.012,18437.0
1047.257,18180.0
1048.503,18236.0
1049.748,18218.17
1050.993,18392.0
1052.238,18144.0
1053.483,18241.0
1054.727,18106.0
1055.971,18138.0
1057.216,17934.0
1058.459,18044.0
1059.703,18004.0
1060.947,17992.0
1062.19,18009.723
1063.433,18041.0
1064.676,17946.0
1065.919,18011.0
1067.162,17912.0
1068.404,17830.0
1069.646,18109.0
1070.888,17961.0
1072.13,18161.0
1073.372,18268.0
1074.613,18233.0
1075.855,18435.0
1077.096,18586.0
1078.337,18572.0
1079.578,19132.0
1080.818,19158.0
1082.059,19416.0
1083.299,19648.0
1084.539,19817.0
1085.779,20409.0
1087.018,20601.0
1088.258,20876.0
1089.497,21204.0
1090.736,21139.0
1091.975,21002.0
1093.213,20778.0
1094.452,20424.0
1095.69,19751.0
1096.928,19514.0
1098.166,18856.0
1099.404,18771.0
1100.642,18371.0
1101.879,18350.0
1103.116,18240.0
1104.353,18240.0
1105.59,18084.0
1106.827,18182.0
1108.063,17951.0
1109.299,18098.0
1110.536,17746.0
1111.771,18074.0
1113.007,17924.0
1114.243,17878.0
1115.478,17882.0
1116.713,17874.0
1117.948,17826.0
1119.183,17761.0
1120.418,17800.0
1121.652,17749.0
1122.886,17833.0
1124.12,17770.0
1125.354,17766.314
1126.588,17769.0
1127.821,17682.0
1129.055,17920.0
1130.288,17823.0
1131.521,17873.0
1132.753,17854.0
1133.986,17908.0
1135.218,17806.0
1136.45,17950.0
1137.682,18024.0
1138.914,17638.0
1140.146,18016.0
1141.377,17957.0
1142.609,17754.0
1143.84,17854.0
1145.071,17856.0
1146.301,18052.0
1147.532,17904.0
1148.762,17845.0
1149.992,17900.0
1151.222,17898.0
1152.452,17836.0
1153.682,18219.0
1154.911,18360.0
1156.14,18138.0
1157.369,18214.0
1158.598,18139.0
1159.827,18121.0
1161.055,18188.0
1162.284,18212.0
1163.512,18161.0
1164.74,18317.0
1165.967,18192.0
1167.195,18142.0
1168.422,18003.0
1169.65,18291.0
1170.877,18343.0
1172.103,18265.0
1173.33,18225.0
1174.557,18279.0
1175.783,18254.0
1177.009,18407.0
1178.235,18388.0
1179.461,18179.0
1180.686,18471.0
1181.912,18427.0
1183.137,18393.0
1184.362,18511.0
1185.587,18636.0
1186.811,18667.0
1188.036,18512.0
1189.26,18692.0
1190.484,18685.0
1191.708,18686.0
1192.932,18816.0
1194.155,18888.0
1195.378,18665.0
1196.602,18955.0
1197.825,18818.441
1199.047,19025.0
1200.27,18722.0
1201.492,18849.0
1202.715,18754.0
1203.937,19173.0
1205.159,18742.0
1206.38,19209.0
1207.602,19008.0
1208.823,19549.0
1210.044,19235.0
1211.265,19157.0
1212.486,19136.0
1213.707,19077.0
1214.927,19192.0
1216.147,19136.0
1217.367,19268.0
1218.587,19270.0
1219.807,19323.0
1221.027,19155.0
1222.246,19349.0
1223.465,19320.0
1224.684,19330.0
1225.903,19497.0
1227.121,19435.0
1228.34,19437.0
1229.558,19411.0
1230.776,19580.0
1231.994,19538.0
1233.212,19657.0
1234.429,19338.0
1235.646,19770.0
1236.864,19654.0
1238.081,19482.0
1239.297,19806.0
1240.514,19651.0
1241.73,19720.0
1242.947,19851.0
1244.163,19765.0
1245.378,19834.0
1246.594,19792.0
1247.81,19913.0
1249.025,19934.0
1250.24,19768.0
1251.455,20168.0
1252.67,19891.0
1253.885,20026.0
1255.099,20046.0
1256.313,20024.0
1257.527,20138.0
1258.741,19963.0
1259.955,20304.0
1261.168,20260.0
1262.382,20137.0
1263.595,20251.0
1264.808,20330.0
1266.021,20349.0
1267.233,20322.0
1268.446,20416.0
1269.658,20464.0
1270.87,20457.0
1272.082,20500.0
1273.294,20526.0
1274.505,20583.0
1275.716,20484.0
1276.928,20544.0
1278.139,20654.0
1279.349,20554.0
1280.56,20704.0
1281.77,20724.0
1282.981,20788.0
1284.191,20836.0
1285.401,20769.0
1286.61,20908.0
1287.82,20928.0
1289.029,20900.0
1290.239,21168.0
1291.448,20920.0
1292.656,21117.0
1293.865,21019.0
1295.073,21127.0
1296.282,20879.0
1297.49,21228.0
1298.698,21034.0
1299.906,21386.0
1301.113,21636.0
1302.32,21806.0
1303.528,21185.0
1304.735,21290.0
1305.942,21613.0
1307.148,21312.0
1308.355,21473.0
1309.561,21648.0
1310.767,21460.0
1311.973,21888.0
1313.179,21590.0
1314.384,21826.0
1315.59,21661.0
1316.795,22016.0
1318.0,21737.0
1319.205,22000.0
1320.41,21943.0
1321.614,22077.0
1322.819,22052.0
1324.023,22003.0
1325.227,22231.0
1326.431,22089.0
1327.634,22476.0
1328.838,22246.0
1330.041,22139.0
1331.244,22198.0
1332.447,22405.0
1333.65,22394.0
1334.852,22420.0
1336.055,22310.0
1337.257,22421.0
1338.459,22305.0
1339.661,22342.0
1340.862,22489.0
1342.064,22526.0
1343.265,22472.0
1344.466,22378.0
1345.667,22522.0
1346.868,22588.0
1348.068,22630.0
1349.269,22597.0
1350.469,22590.0
1351.669,22713.0
1352.869,22710.0
1354.069,22752.0
1355.268,22760.0
1356.468,22785.0
1357.667,22795.59
1358.866,22845.0
1360.065,22851.0
1361.263,22866.0
1362.462,22988.0
1363.66,22758.0
1364.858,22741.0
1366.056,22925.0
1367.254,22856.0
1368.451,22976.0
1369.649,22984.0
1370.846,23016.0
1372.043,22806.0
1373.24,22972.0
1374.436,23015.0
1375.633,22861.0
1376.829,23010.0
1378.025,23141.0
1379.221,23113.0
1380.417,22952.0
1381.613,23176.0
1382.808,23113.0
1384.003,23150.0
1385.199,23249.0
1386.393,23254.0
1387.588,23336.0
1388.783,23128.0
1389.977,23224.0
1391.171,23104.0
1392.365,23430.0
1393.559,23144.0
1394.753,23341.0
1395.946,23233.0
1397.14,23260.0
1398.333,23451.0
1399.526,23409.0
1400.719,23352.0
1401.911,23483.0
1403.104,23688.0
1404.296,23526.0
1405.488,23328.0
1406.68,23510.0
1407.872,23528.0
1409.063,23438.0
1410.255,23716.0
1411.446,23697.0
1412.637,23648.0
1413.828,23810.0
1415.018,23755.0
1416.209,23686.0
1417.399,23816.0
1418.589,23910.0
1419.779,23793.0
1420.969,23920.0
1422.159,23698.0
1423.348,24072.0
1424.537,23844.0
1425.726,23893.0
1426.915,24016.0
1428.104,24009.0
1429.293,24037.0
1430.481,23893.0
1431.669,24013.0
1432.857,23911.0
1434.045,24113.0
1435.233,24045.0
1436.42,24047.0
1437.608,24372.0
1438.795,24358.0
1439.982,24176.0
1441.169,24134.0
1442.355,24466.0
1443.542,24396.0
1444.728,24265.0
1445.914,24554.0
1447.1,24365.0
1448.286,24411.0
1449.472,24429.0
1450.657,24476.0
1451.842,24246.0
1453.027,24691.0
1454.212,24624.0
1455.397,24561.0
1456.581,24961.0
1457.766,24372.0
1458.95,24552.0
1460.134,24872.0
1461.318,24661.0
1462.501,24915.0
1463.685,24557.0
1464.868,24663.0
1466.051,24934.0
1467.234,24642.0
1468.417,25017.0
1469.6,24677.0
1470.782,24785.0
1471.965,24970.0
1473.147,25081.0
1474.329,25005.0
1475.51,25440.0
1476.692,25154.0
1477.873,24797.0
1479.055,25016.0
1480.236,25035.0
1481.416,24988.0
1482.597,25105.193
1483.778,25105.0
1484.958,25179.0
1486.138,25064.0
1487.318,25081.0
1488.498,25051.0
1489.678,25297.0
1490.857,25131.0
1492.037,25211.0
1493.216,25034.0
1494.395,25269.0
1495.574,25428.0
1496.752,25334.0
1497.931,25390.0
1499.109,25314.0
1500.287,25470.0
1501.465,25048.0
1502.643,25341.0
1503.82,25195.0
1504.998,25268.0
