Raman Shift,Intensity
142.016,14482.0
143.401,14425.0
144.787,14476.0
146.172,14478.0
147.557,14504.0
148.942,14645.0
150.327,14624.0
151.711,14568.0
153.096,14537.0
154.48,14656.0
155.863,14825.0
157.247,14684.0
158.63,14571.0
160.013,14852.0
161.396,14802.0
162.779,14884.0
164.161,14901.0
165.544,14966.0
166.926,14928.0
168.308,15037.0
169.689,14953.0
171.07,15067.0
172.452,14861.0
173.833,15218.0
175.213,15061.0
176.594,15186.0
177.974,15278.0
179.354,15112.0
180.734,15368.0
182.114,15227.0
183.493,15226.0
184.872,15280.0
186.251,15304.0
187.63,15429.0
189.008,15442.0
190.387,15392.0
191.765,15491.0
193.143,15706.0
194.52,15628.0
195.898,15756.0
197.275,15627.0
198.652,15699.0
200.029,15904.0
201.405,15930.0
202.782,15981.0
204.158,16060.0
205.534,16020.0
206.909,16038.683
208.285,16004.34
209.66,16059.0
211.035,15834.0
212.41,15972.0
213.784,15759.0
215.159,15745.0
216.533,15777.0
217.907,15843.0
219.281,15898.0
220.654,15880.0
222.027,15850.0
223.4,15878.0
224.773,16014.0
226.146,16184.0
227.518,16018.0
228.891,16221.0
230.263,16187.0
231.634,16256.0
233.006,16170.0
234.377,16251.0
235.748,16291.0
237.119,16252.0
238.49,16326.0
239.86,16376.0
241.231,16390.547
242.601,16450.0
243.97,16495.0
245.34,16607.0
246.709,16736.0
248.079,16773.0
249.448,16622.0
250.816,16854.0
252.185,16636.0
253.553,16980.0
254.921,16916.0
256.289,17097.0
257.657,17337.0
259.024,17400.0
260.391,17596.0
261.758,17506.0
263.125,17998.0
264.492,18033.0
265.858,18385.0
267.224,18697.0
268.59,19086.0
269.956,19594.0
271.321,19939.0
272.687,20848.0
274.052,21338.0
275.416,21737.0
276.781,21798.0
278.146,21876.0
279.51,21368.0
280.874,20828.0
282.237,20388.0
283.601,19874.0
284.964,19610.0
286.327,19193.32
287.69,18463.0
289.053,18573.0
290.416,18275.0
291.778,18081.0
293.14,18369.0
294.502,17861.0
295.863,18146.0
297.225,17916.0
298.586,17932.0
299.947,18016.0
301.308,18117.0
302.668,18102.0
304.029,17845.0
305.389,17858.0
306.749,17937.0
308.108,17933.0
309.468,17988.0
310.827,18065.0
312.186,17924.0
313.545,18061.0
314.903,17905.0
316.262,18030.0
317.62,18150.0
318.978,17995.0
320.336,18160.0
321.693,18165.0
323.051,18102.0
324.408,18155.0
325.765,18374.0
327.121,18167.0
328.478,18516.0
329.834,18159.0
331.19,18463.0
332.546,18480.0
333.902,18538.0
335.257,18476.0
336.612,18664.0
337.967,18574.0
339.322,18666.0
340.677,18759.0
342.031,18672.0
343.385,18734.0
344.739,18752.0
346.093,18789.0
347.446,18880.0
348.799,18816.0
350.153,18839.0
351.505,18945.0
352.858,19042.0
354.21,19119.0
355.563,19018.0
356.915,19056.0
358.267,19149.0
359.618,19114.0
360.969,19258.0
362.321,19095.0
363.672,19254.0
365.022,19228.0
366.373,19308.0
367.723,19486.0
369.073,19402.0
370.423,19454.0
371.773,19468.0
373.122,19509.0
374.471,19437.0
375.821,19514.0
377.169,19836.0
378.518,19659.0
379.866,19883.0
381.215,19660.0
382.563,20099.0
383.91,20454.0
385.258,20226.0
386.605,20243.0
387.952,20546.0
389.299,20376.0
390.646,20091.0
391.992,20256.0
393.339,20234.0
394.685,20050.0
396.031,20100.0
397.376,20120.0
398.722,20510.0
400.067,20142.0
401.412,20423.0
402.757,20330.0
404.101,20304.0
405.446,20624.0
406.79,20338.0
408.134,20464.0
409.478,20642.0
410.821,20628.0
412.165,20705.0
413.508,20763.0
414.851,20765.0
416.193,20829.977
417.536,21028.0
418.878,20926.0
420.22,21125.0
421.562,21226.0
422.904,21481.0
424.245,21164.0
425.586,21792.0
426.927,21981.0
428.268,22002.0
429.609,22589.0
430.949,22584.0
432.289,23141.0
433.629,24100.0
434.969,25376.0
436.309,26222.0
437.648,27904.0
438.987,29384.0
440.326,30804.0
441.665,31194.0
443.003,31021.0
444.342,30185.0
445.68,29292.0
447.018,27728.0
448.355,26467.0
449.693,25474.0
451.03,24370.0
452.367,23859.0
453.704,23389.0
455.041,23378.0
456.377,22608.0
457.713,22757.0
459.049,22499.0
460.385,22464.0
461.721,22272.0
463.056,22272.0
464.391,22562.0
465.726,22177.0
467.061,22198.0
468.395,22484.0
469.73,22169.0
471.064,22232.0
472.398,22475.0
473.731,22217.0
475.065,22376.0
476.398,22137.0
477.731,22266.0
479.064,22435.0
480.397,22421.0
481.729,22351.0
483.062,22483.0
484.394,22617.0
485.725,22315.0
487.057,22559.0
488.389,22536.0
489.72,22478.0
491.051,22657.0
492.382,22475.0
493.712,22630.0
495.043,22800.0
496.373,22728.0
497.703,22852.504
499.032,22672.0
500.362,22878.0
501.691,22830.0
503.02,22744.0
504.349,22910.0
505.678,22830.0
507.007,22898.0
508.335,22930.0
509.663,22945.0
510.991,23094.0
512.319,23027.0
513.646,23241.0
514.973,23046.0
516.3,23360.0
517.627,23209.0
518.954,23380.0
520.28,23536.0
521.607,23068.0
522.933,23471.0
524.259,23368.0
525.584,23504.0
526.91,23352.0
528.235,23450.0
529.56,23642.0
530.885,23637.0
532.209,23912.0
533.534,23891.521
534.858,23874.777
536.182,23889.0
537.506,23834.0
538.829,23755.0
540.152,23945.0
541.476,23833.0
542.799,23820.0
544.121,24138.0
545.444,23802.0
546.766,24106.0
548.088,24106.0
549.41,23906.0
550.732,24203.0
552.053,24277.0
553.375,24232.0
554.696,24327.0
556.017,24104.0
557.337,24233.0
558.658,24598.0
559.978,24597.0
561.298,24434.0
562.618,24330.0
563.938,24633.0
565.257,24516.0
566.576,24622.0
567.895,24756.0
569.214,24646.0
570.533,24819.0
571.851,24820.0
573.17,24924.0
574.488,24660.0
575.805,25082.0
577.123,24859.0
578.44,24852.0
579.758,24963.0
581.075,24948.0
582.391,25194.0
583.708,25033.0
585.024,25408.0
586.341,25296.0
587.657,25164.0
588.972,25656.0
590.288,25544.0
591.603,25741.0
592.918,25558.0
594.233,25448.0
595.548,25594.0
596.863,25570.0
598.177,25935.0
599.491,25626.0
600.805,25744.0
602.119,25877.0
603.432,25684.0
604.746,25976.0
606.059,25996.0
607.372,26100.0
608.685,26184.0
609.997,26173.861
611.309,26262.0
612.621,26164.0
613.933,26100.0
615.245,26086.0
616.557,26388.0
617.868,26444.0
619.179,26401.0
620.49,26483.0
621.801,26465.0
623.111,26349.0
624.421,26798.0
625.731,26567.0
627.041,26660.0
628.351,26344.0
629.66,26866.0
630.97,26654.0
632.279,26713.0
633.588,27130.0
634.896,26831.0
636.205,27042.0
637.513,26752.0
638.821,27306.0
640.129,26986.0
641.437,27232.0
642.744,27317.0
644.051,27320.0
645.358,27206.0
646.665,27278.0
647.972,27525.0
649.278,27287.0
650.584,27418.0
651.89,27314.0
653.196,27504.0
654.502,27846.0
655.807,27484.0
657.113,27821.0
658.418,27457.0
659.722,27871.0
661.027,28148.0
662.331,27818.0
663.636,27908.0
664.94,27911.0
666.244,28104.0
667.547,27932.0
668.851,28074.0
670.154,27876.0
671.457,28336.0
672.76,28202.0
674.062,28144.0
675.365,28512.0
676.667,28432.0
677.969,28496.0
679.271,28448.0
680.572,28493.0
681.874,28592.0
683.175,28563.0
684.476,29025.0
685.777,29142.0
687.077,29029.0
688.378,29008.0
689.678,28851.0
690.978,28949.762
692.278,29166.0
693.577,29218.0
694.877,29322.279
696.176,29628.0
697.475,29298.0
698.774,29730.0
700.072,29598.0
701.371,29608.0
702.669,29581.0
703.967,29883.0
705.265,29490.0
706.562,29814.0
707.86,30574.0
709.157,30164.0
710.454,29924.0
711.751,30378.0
713.047,29955.0
714.344,30579.0
715.64,30408.0
716.936,30630.0
718.232,30238.0
719.527,30385.0
720.823,30984.0
722.118,30828.0
723.413,30793.0
724.708,30960.0
726.002,31010.0
727.297,30971.0
728.591,31358.0
729.885,31283.586
731.179,31477.0
732.472,31365.0
733.766,31119.0
735.059,31099.0
736.352,31144.0
737.645,31273.0
738.937,31358.0
740.23,31477.0
741.522,31804.0
742.814,31264.0
744.106,31368.0
745.397,31612.0
746.689,31544.0
747.98,31562.0
749.271,31128.0
750.562,31457.0
751.853,31388.0
753.143,31808.0
754.433,31609.0
755.723,32273.0
757.013,32178.0
758.303,31638.0
759.592,31836.0
760.881,31480.0
762.17,31933.0
763.459,31613.0
764.748,31936.0
766.036,31915.0
767.325,31413.0
768.613,32199.0
769.901,31787.0
771.188,32086.0
772.476,31996.0
773.763,31824.0
775.05,32338.0
776.337,31672.0
777.624,32330.0
778.91,32332.0
780.196,32263.0
781.482,32193.0
782.768,32238.0
784.054,32200.0
785.339,32302.0
786.625,32432.0
787.91,32596.0
789.195,32293.0
790.479,32610.0
791.764,32572.0
793.048,32613.0
794.332,32777.0
795.616,32772.0
796.9,33085.0
798.183,32692.0
799.467,33064.0
800.75,32747.0
802.033,32973.0
803.316,32980.0
804.598,32842.0
805.88,33406.0
807.163,32632.0
808.445,33399.0
809.726,33296.0
811.008,33144.0
812.289,33216.0
813.57,33210.0
814.851,33068.0
816.132,33428.0
817.413,33417.0
818.693,33383.0
819.973,33380.0
821.253,33733.0
822.533,34072.0
823.813,33622.0
825.092,34018.0
826.371,33808.0
827.65,33852.0
828.929,33658.0
830.208,34112.0
831.486,34288.0
832.764,34096.0
834.042,33796.0
835.32,33800.0
836.598,34054.0
837.875,33986.0
839.152,34036.0
840.429,34304.0
841.706,34166.0
842.983,34677.0
844.259,34073.0
845.536,34061.0
846.812,34563.0
848.088,34101.0
849.363,34283.0
850.639,34153.0
851.914,34492.0
853.189,34644.0
854.464,34318.0
855.739,34236.0
857.013,34766.0
858.288,34782.0
859.562,34483.0
860.836,34402.0
862.11,34574.0
863.383,34576.531
864.656,34416.0
865.93,34894.0
867.203,34821.0
868.475,34870.0
869.748,35158.0
871.02,35060.0
872.292,35116.148
873.564,35004.0
874.836,35104.0
876.108,34976.0
877.379,35092.0
878.65,34974.0
879.922,35043.324
881.192,35272.0
882.463,35222.0
883.733,35210.0
885.004,35427.0
886.274,35480.0
887.544,35403.0
888.813,35210.0
890.083,35884.0
891.352,35944.0
892.621,35752.0
893.89,35574.0
895.159,35600.0
896.427,35794.0
897.695,35978.0
898.964,35683.0
900.232,36017.0
901.499,35905.0
902.767,35836.0
904.034,35944.0
905.301,36128.0
906.568,35707.0
907.835,36160.0
909.102,36475.0
910.368,36345.0
911.634,36065.0
912.9,36156.0
914.166,36343.0
915.432,36310.0
916.697,36734.0
917.962,36396.0
919.227,36120.0
920.492,36897.0
921.757,36593.0
923.021,36482.0
924.285,36544.0
925.55,36752.0
926.813,36632.0
928.077,36643.0
929.341,36748.0
930.604,36745.0
931.867,36714.0
933.13,37041.0
934.393,36580.0
935.655,36743.0
936.918,37184.0
938.18,36828.0
939.442,37400.0
940.703,37019.0
941.965,37045.0
943.226,37457.0
944.488,37314.0
945.749,37003.0
947.009,37197.0
948.27,37582.0
949.53,37414.0
950.791,37464.0
952.051,37398.0
953.311,37666.0
954.57,37406.0
955.83,37123.0
957.089,37716.0
958.348,37707.0
959.607,37883.0
960.866,37436.0
962.124,37810.0
963.383,37462.0
964.641,37734.0
965.899,37829.0
967.156,37932.0
968.414,37986.0
969.671,37976.0
970.928,37891.0
972.185,38072.0
973.442,37899.0
974.699,38376.0
975.955,38217.0
977.211,38576.0
978.468,38497.0
979.723,38189.0
980.979,38572.0
982.234,38472.0
983.49,38336.0
984.745,39241.0
986.0,38346.0
987.254,38802.0
988.509,38878.0
989.763,38608.0
991.017,39130.0
992.271,38864.0
993.525,38905.0
994.779,38888.0
996.032,38968.0
997.285,39262.0
998.538,39186.0
999.791,39302.0
1001.044,38660.0
1002.296,39587.0
1003.548,39018.0
1004.8,39112.0
1006.052,39562.0
1007.304,39425.0
1008.555,39412.0
1009.807,39377.0
1011.058,39625.0
1012.309,39636.0
1013.559,39896.0
1014.81,39705.0
1016.06,39714.0
1017.31,39549.0
1018.56,39614.98
1019.81,40000.0
1021.06,39766.0
1022.309,40224.0
1023.558,40332.0
1024.807,39840.0
1026.056,40307.0
1027.305,40050.0
1028.553,40281.0
1029.801,40274.0
1031.049,40505.0
1032.297,40411.0
1033.545,40305.0
1034.793,40170.0
1036.04,40633.0
1037.287,40388.0
1038.534,40585.352
1039.781,40774.0
1041.027,40660.0
1042.274,40946.0
1043.52,40726.0
1044.766,41008.0
1046.012,41693.0
1047.257,41216.0
1048.503,40909.0
1049.748,41010.0
1050.993,41596.0
1052.238,40955.0
1053.483,41560.0
1054.727,41178.0
1055.971,41104.0
1057.216,41078.0
1058.459,41075.934
1059.703,41132.285
1060.947,41317.0
1062.19,41256.0
1063.433,41331.0
1064.676,41264.0
1065.919,41353.0
1067.162,41244.0
1068.404,41298.0
1069.646,41817.0
1070.888,41346.0
1072.13,41960.0
1073.372,41717.0
1074.613,41386.0
1075.855,41682.0
1077.096,41856.0
1078.337,41657.0
1079.578,41579.0
1080.818,42163.0
1082.059,41979.0
1083.299,42142.0
1084.539,42180.0
1085.779,42688.0
1087.018,42705.0
1088.258,42616.0
1089.497,42511.0
1090.736,42473.082
1091.975,42397.0
1093.213,42284.0
1094.452,42152.0
1095.69,42222.262
1096.928,42224.211
1098.166,42350.0
1099.404,42460.0
1100.642,42483.0
1101.879,42726.0
1103.116,42278.0
1104.353,42804.0
1105.59,42435.0
1106.827,42904.0
1108.063,42484.0
1109.299,43048.0
1110.536,42520.0
1111.771,43032.0
1113.007,42698.0
1114.243,42584.0
1115.478,42978.0
1116.713,42854.0
1117.948,43089.0
1119.183,43035.0
1120.418,43217.0
1121.652,43054.0
1122.886,43172.0
1124.12,43320.0
1125.354,43304.0
1126.588,43192.0
1127.821,43076.0
1129.055,43334.0
1130.288,43253.0
1131.521,43560.0
1132.753,43593.0
1133.986,43530.0
1135.218,43280.0
1136.45,43410.0
1137.682,44180.0
1138.914,43345.0
1140.146,44085.0
1141.377,43691.0
1142.609,43535.0
1143.84,43800.0
1145.071,43662.0
1146.301,44118.0
1147.532,44198.0
1148.762,44294.0
1149.992,44182.0
1151.222,44138.0
1152.452,43952.0
1153.682,44586.0
1154.911,44752.0
1156.14,44074.0
1157.369,44869.0
1158.598,44508.0
1159.827,44532.0
1161.055,44795.0
1162.284,44889.0
1163.512,44834.0
1164.74,44984.0
1165.967,44840.0
1167.195,45001.0
1168.422,45118.953
1169.65,45113.0
1170.877,45364.0
1172.103,45216.0
1173.33,45126.0
1174.557,45467.0
1175.783,45210.0
1177.009,45604.0
1178.235,45627.0
1179.461,45138.0
1180.686,45794.0
1181.912,45650.0
1183.137,45734.0
1184.362,46067.0
1185.587,46032.0
1186.811,46332.0
1188.036,45952.0
1189.26,46264.0
1190.484,46112.0
1191.708,46064.0
1192.932,46314.0
1194.155,46343.0
1195.378,46118.0
1196.602,46297.0
1197.825,46484.0
1199.047,46500.0
1200.27,46281.0
1201.492,46780.0
1202.715,46512.0
1203.937,47125.0
1205.159,46372.0
1206.38,47121.0
1207.602,46802.0
1208.823,47025.0
1210.044,46742.0
1211.265,46920.0
1212.486,47122.0
1213.707,47010.0
1214.927,47232.0
1216.147,47096.0
1217.367,47344.0
1218.587,47112.0
1219.807,47275.0
1221.027,47200.0
1222.246,47289.0
1223.465,47440.0
1224.684,47190.0
1225.903,47618.0
1227.121,47910.0
1228.34,47604.0
1229.558,47544.0
1230.776,47968.0
1231.994,48002.0
1233.212,47865.0
1234.429,47685.0
1235.646,48139.0
1236.864,48417.0
1238.081,48060.0
1239.297,48192.0
1240.514,48292.0
1241.73,48388.0
1242.947,48424.203
1244.163,48432.0
1245.378,48516.0
1246.594,48531.0
1247.81,48705.0
1249.025,48888.0
1250.24,48774.621
1251.455,49156.0
1252.67,48732.0
1253.885,48667.0
1255.099,48957.0
1256.313,48896.0
1257.527,48832.0
1258.741,48484.0
1259.955,49208.0
1261.168,49112.0
1262.382,50121.0
1263.595,49261.0
1264.808,49307.0
1266.021,49556.0
1267.233,49401.0
1268.446,49456.0
1269.658,49585.0
1270.87,49593.0
1272.082,49291.0
1273.294,49741.0
1274.505,49405.0
1275.716,49448.0
1276.928,49760.0
1278.139,49942.0
1279.349,49752.0
1280.56,50172.0
1281.77,50732.0
1282.981,50560.0
1284.191,50125.0
1285.401,50049.0
1286.61,50424.0
1287.82,50538.0
1289.029,50272.0
1290.239,50586.0
1291.448,50304.0
1292.656,50628.0
1293.865,50502.0
1295.073,50572.0
1296.282,50696.0
1297.49,50674.0
1298.698,50673.0
1299.906,50715.0
1301.113,50776.672
1302.32,51176.0
1303.528,51058.0
1304.735,51009.0
1305.942,51344.0
1307.148,50961.0
1308.355,51553.0
1309.561,51648.0
1310.767,51596.0
1311.973,52032.0
1313.179,51640.0
1314.384,51828.0
1315.59,51909.625
1316.795,52012.0
1318.0,51962.0
1319.205,51806.0
1320.41,51581.0
1321.614,52444.0
1322.819,52261.0
1324.023,51880.0
1325.227,52517.0
1326.431,52136.0
1327.634,52875.0
1328.838,52578.0
1330.041,52365.0
1331.244,52545.0
1332.447,52702.0
1333.65,53035.0
1334.852,52904.0
1336.055,52998.0
1337.257,53163.0
1338.459,53001.0
1339.661,53093.0
1340.862,53340.0
1342.064,53270.031
1343.265,53550.0
1344.466,53530.0
1345.667,53582.0
1346.868,54048.0
1348.068,53922.0
1349.269,54368.0
1350.469,54164.0
1351.669,54105.0
1352.869,54297.0
1354.069,54306.0
1355.268,54452.0
1356.468,54657.0
1357.667,54437.0
1358.866,54562.0
1360.065,54923.0
1361.263,54628.0
1362.462,54680.0
1363.66,54835.0
1364.858,54781.0
1366.056,54956.191
1367.254,55489.0
1368.451,55211.0
1369.649,55428.0
1370.846,55531.0
1372.043,55184.0
1373.24,55534.0
1374.436,55112.0
1375.633,55566.0
1376.829,55884.0
1378.025,55803.0
1379.221,55601.0
1380.417,55464.0
1381.613,55746.0
1382.808,56034.0
1384.003,55854.0
1385.199,56283.0
1386.393,56360.0
1387.588,56320.0
1388.783,56019.0
1389.977,56571.0
1391.171,56337.0
1392.365,56609.0
1393.559,56396.0
1394.753,56652.0
1395.946,56977.0
1397.14,56650.0
1398.333,56818.0
1399.526,56961.0
1400.719,57266.0
1401.911,57235.234
1403.104,57392.0
1404.296,57224.0
1405.488,57302.0
1406.68,57284.0
1407.872,57508.0
1409.063,57160.0
1410.255,57777.0
1411.446,58118.0
1412.637,57590.0
1413.828,58214.0
1415.018,57594.0
1416.209,58130.0
1417.399,58105.0
1418.589,58321.0
1419.779,58291.0
1420.969,58648.0
1422.159,58574.0
1423.348,58572.0
1424.537,58336.0
1425.726,58688.0
1426.915,59241.0
1428.104,58888.0
1429.293,58824.0
1430.481,59110.0
1431.669,58947.0
1432.857,59148.0
1434.045,59304.0
1435.233,59196.0
1436.42,59275.0
1437.608,59379.652
1438.795,59784.0
1439.982,59712.0
1441.169,59742.0
1442.355,60130.0
1443.542,59901.0
1444.728,59992.0
1445.914,60406.0
1447.1,59884.0
1448.286,60019.0
1449.472,60310.0
1450.657,60576.0
1451.842,60068.0
1453.027,60928.0
1454.212,60387.0
1455.397,60683.0
1456.581,61202.0
1457.766,60454.0
1458.95,60912.0
1460.134,61039.0
1461.318,60624.0
1462.501,61369.0
1463.685,60844.0
1464.868,60915.0
1466.051,61661.0
1467.234,61114.0
1468.417,61790.0
1469.6,60966.0
1470.782,61361.0
1471.965,61784.0
1473.147,61984.0
1474.329,61368.0
1475.51,61850.0
1476.692,61941.0
1477.873,61505.0
1479.055,61900.0
1480.236,61649.0
1481.416,61961.0
1482.597,62595.0
1483.778,61937.0
1484.958,62298.0
1486.138,62232.0
1487.318,62075.0
1488.498,62123.0
1489.678,62122.258
1490.857,62169.0
1492.037,62400.0
1493.216,62308.0
1494.395,62752.0
1495.574,63008.0
