Raman shift,Intensity
752.29475,302.65502
753.91051,302.65502
755.52627,302.65502
757.14202,302.65502
758.75778,301.9972
760.37353,301.9972
761.98929,301.33938
763.60504,301.33938
765.2208,301.9972
766.83656,301.33938
768.45231,301.33938
770.06807,301.33938
771.68382,301.33938
773.29958,301.33938
774.91533,301.33938
776.53109,301.33938
778.14685,300.68155
779.7626,300.68155
781.37836,300.68155
782.99411,300.68155
784.60987,300.68155
786.22563,300.68155
787.84138,300.68155
789.45714,300.68155
791.07289,300.68155
792.68865,300.68155
794.3044,300.68155
795.92016,300.68155
797.53592,300.68155
799.15167,301.33938
800.76743,301.9972
802.38318,302.65502
803.99894,303.31285
805.61469,302.65502
807.23045,301.9972
808.84621,301.33938
810.46196,301.9972
812.07772,301.33938
813.69347,300.68155
815.30923,300.68155
816.92498,300.68155
818.54074,300.68155
820.1565,300.02373
821.77225,300.02373
823.38801,300.02373
825.00376,300.02373
826.61952,300.02373
828.23528,300.02373
829.85103,300.02373
831.46679,300.02373
833.08254,300.02373
834.6983,300.02373
836.31405,300.02373
837.92981,300.02373
839.54557,300.02373
841.16132,300.02373
842.77708,300.02373
844.39283,300.02373
846.00859,300.02373
847.62434,300.02373
849.2401,300.02373
850.85586,300.02373
852.47161,300.02373
854.08737,300.02373
855.70312,300.02373
857.31888,300.02373
858.93464,300.02373
860.55039,300.02373
862.16615,300.02373
863.7819,300.02373
865.39766,300.02373
867.01341,300.02373
868.62917,300.02373
870.24493,300.02373
871.86068,300.02373
873.47644,300.02373
875.09219,300.02373
876.70795,300.02373
878.3237,300.02373
879.93946,300.02373
881.55522,300.02373
883.17097,300.68155
884.78673,301.33938
886.40248,301.9972
888.01824,301.9972
889.63399,301.9972
891.24975,301.9972
892.86551,301.9972
894.48126,301.9972
896.09702,301.9972
897.71277,301.9972
899.32853,301.9972
900.94429,301.9972
902.56004,301.33938
904.1758,301.33938
905.79155,301.33938
907.40731,301.33938
909.02306,301.33938
910.63882,301.33938
912.25458,301.33938
913.87033,301.33938
915.48609,301.33938
917.10184,301.33938
918.7176,301.33938
920.33335,301.33938
921.94911,301.33938
923.56487,301.33938
925.18062,301.33938
926.79638,301.33938
928.41213,301.33938
930.02789,301.33938
931.64365,300.68155
933.2594,300.02373
934.87516,299.3659
936.49091,299.3659
938.10667,299.3659
939.72242,299.3659
941.33818,299.3659
942.95394,299.3659
944.56969,299.3659
946.18545,299.3659
947.8012,299.3659
949.41696,299.3659
951.03271,299.3659
952.64847,299.3659
954.26423,299.3659
955.87998,299.3659
957.49574,299.3659
959.11149,299.3659
960.72725,299.3659
962.343,299.3659
963.95876,299.3659
965.57452,299.3659
967.19027,299.3659
968.80603,299.3659
970.42178,299.3659
972.03754,299.3659
973.6533,299.3659
975.26905,299.3659
976.88481,299.3659
978.50056,299.3659
980.11632,299.3659
981.73207,299.3659
983.34783,299.3659
984.96359,299.3659
986.57934,299.3659
988.1951,299.3659
989.81085,299.3659
991.42661,299.3659
993.04236,299.3659
994.65812,299.3659
996.27388,299.3659
997.88963,299.3659
999.50539,299.3659
1001.12114,299.3659
1002.7369,299.3659
1004.35266,299.3659
1005.96841,299.3659
1007.58417,299.3659
1009.19992,299.3659
1010.81568,299.3659
1012.43143,299.3659
1014.04719,299.3659
1015.66295,299.3659
1017.2787,299.3659
1018.89446,299.3659
1020.51021,299.3659
1022.12597,299.3659
1023.74172,299.3659
1025.35748,299.3659
1026.97324,299.3659
1028.58899,299.3659
1030.20475,299.3659
1031.8205,299.3659
1033.43626,299.3659
1035.05201,299.3659
1036.66777,299.3659
1038.28353,299.3659
1039.89928,299.3659
1041.51504,299.3659
1043.13079,299.3659
1044.74655,299.3659
1046.36231,299.3659
1047.97806,299.3659
1049.59382,299.3659
1051.20957,299.3659
1052.82533,299.3659
1054.44108,299.3659
1056.05684,299.3659
1057.6726,299.3659
1059.28835,299.3659
1060.90411,299.3659
1062.51986,299.3659
1064.13562,299.3659
1065.75137,299.3659
1067.36713,299.3659
1068.98289,299.3659
1070.59864,299.3659
1072.2144,299.3659
1073.83015,299.3659
1075.44591,299.3659
1077.06167,299.3659
1078.67742,299.3659
1080.29318,299.3659
1081.90893,299.3659
1083.52469,299.3659
1085.14044,299.3659
1086.7562,299.3659
1088.37196,299.3659
1089.98771,299.3659
1091.60347,299.3659
1093.21922,299.3659
1094.83498,299.3659
1096.45073,299.3659
1098.06649,299.3659
1099.68225,299.3659
1101.298,299.3659
1102.91376,299.3659
1104.52951,299.3659
1106.14527,299.3659
1107.76102,299.3659
1109.37678,299.3659
1110.99254,299.3659
1112.60829,299.3659
1114.22405,299.3659
1115.8398,299.3659
1117.45556,299.3659
1119.07132,299.3659
1120.68707,299.3659
1122.30283,299.3659
1123.91858,299.3659
1125.53434,299.3659
1127.15009,299.3659
1128.76585,299.3659
1130.38161,299.3659
1131.99736,300.02373
1133.61312,300.68155
1135.22887,301.33938
1136.84463,301.33938
1138.46038,301.33938
1140.07614,301.33938
1141.6919,301.33938
1143.30765,301.33938
1144.92341,301.33938
1146.53916,301.33938
1148.15492,301.33938
1149.77068,300.68155
1151.38643,300.02373
1153.00219,300.02373
1154.61794,300.02373
1156.2337,300.02373
1157.84945,300.02373
1159.46521,300.02373
1161.08097,300.02373
1162.69672,300.02373
1164.31248,300.02373
1165.92823,300.02373
1167.54399,300.02373
1169.15974,300.02373
1170.7755,300.02373
1172.39126,300.02373
1174.00701,300.02373
1175.62277,300.02373
1177.23852,300.02373
1178.85428,300.02373
1180.47003,300.02373
1182.08579,300.02373
1183.70155,300.02373
1185.3173,300.02373
1186.93306,300.02373
1188.54881,300.02373
1190.16457,300.02373
1191.78033,300.02373
1193.39608,300.02373
1195.01184,300.02373
1196.62759,300.02373
1198.24335,300.02373
1199.8591,300.02373
1201.47486,300.02373
1203.09062,300.02373
1204.70637,300.02373
1206.32213,300.02373
1207.93788,300.02373
1209.55364,300.02373
1211.16939,300.02373
1212.78515,300.02373
1214.40091,300.02373
1216.01666,300.02373
1217.63242,300.02373
1219.24817,300.02373
1220.86393,300.02373
1222.47969,300.02373
1224.09544,300.02373
1225.7112,300.02373
1227.32695,300.02373
1228.94271,300.02373
1230.55846,300.02373
1232.17422,300.02373
1233.78998,300.02373
1235.40573,300.02373
1237.02149,300.02373
1238.63724,300.02373
1240.253,300.02373
1241.86875,300.02373
1243.48451,300.02373
1245.10027,300.02373
1246.71602,300.02373
1248.33178,300.02373
1249.94753,300.02373
1251.56329,300.02373
1253.17904,300.68155
1254.7948,301.33938
1256.41056,301.33938
1258.02631,301.33938
1259.64207,300.68155
1261.25782,300.02373
1262.87358,299.3659
1264.48934,298.70808
1266.10509,298.70808
1267.72085,298.70808
1269.3366,298.70808
1270.95236,298.70808
1272.56811,298.70808
1274.18387,298.70808
1275.79963,299.3659
1277.41538,300.02373
1279.03114,300.68155
1280.64689,301.33938
1282.26265,301.33938
1283.8784,301.33938
1285.49416,301.33938
1287.10992,301.33938
1288.72567,301.33938
1290.34143,301.33938
1291.95718,301.33938
1293.57294,301.33938
1295.1887,301.33938
1296.80445,301.33938
1298.42021,301.33938
1300.03596,301.33938
1301.65172,301.33938
1303.26747,301.33938
1304.88323,301.33938
1306.49899,301.33938
1308.11474,301.33938
1309.7305,301.33938
1311.34625,301.33938
1312.96201,301.33938
1314.57776,301.33938
1316.19352,301.33938
1317.80928,301.33938
1319.42503,301.33938
1321.04079,301.33938
1322.65654,301.33938
1324.2723,301.33938
1325.88805,301.33938
1327.50381,301.33938
1329.11957,301.33938
1330.73532,301.33938
1332.35108,301.33938
1333.96683,301.33938
1335.58259,301.33938
1337.19835,301.33938
1338.8141,301.33938
1340.42986,301.33938
1342.04561,301.33938
1343.66137,301.33938
1345.27712,301.33938
1346.89288,301.33938
1348.50864,301.33938
1350.12439,301.33938
1351.74015,301.33938
1353.3559,301.33938
1354.97166,301.33938
1356.58741,301.33938
1358.20317,301.33938
1359.81893,301.33938
1361.43468,301.33938
1363.05044,301.33938
1364.66619,301.33938
1366.28195,301.33938
1367.89771,301.33938
1369.51346,301.33938
1371.12922,301.33938
1372.74497,301.33938
1374.36073,301.33938
1375.97648,301.33938
1377.59224,301.33938
1379.208,301.33938
1380.82375,301.33938
1382.43951,301.33938
1384.05526,301.33938
1385.67102,301.33938
1387.28677,301.33938
1388.90253,301.33938
1390.51829,301.33938
1392.13404,301.33938
1393.7498,301.33938
1395.36555,301.33938
1396.98131,301.33938
1398.59706,301.33938
1400.21282,301.33938
1401.82858,301.33938
1403.44433,301.33938
1405.06009,301.33938
1406.67584,301.33938
1408.2916,301.33938
1409.90736,301.33938
1411.52311,301.33938
1413.13887,301.33938
1414.75462,301.33938
1416.37038,301.33938
1417.98613,301.33938
1419.60189,301.33938
1421.21765,301.33938
1422.8334,301.33938
1424.44916,301.33938
1426.06491,301.33938
1427.68067,301.33938
1429.29642,301.33938
1430.91218,301.33938
1432.52794,301.33938
1434.14369,301.33938
1435.75945,301.33938
1437.3752,301.33938
1438.99096,301.33938
1440.60672,301.33938
1442.22247,301.33938
1443.83823,301.33938
1445.45398,301.33938
1447.06974,301.33938
1448.68549,301.33938
1450.30125,301.33938
1451.91701,301.33938
1453.53276,301.33938
1455.14852,301.33938
1456.76427,301.33938
1458.38003,301.33938
1459.99578,301.33938
1461.61154,301.33938
1463.2273,301.33938
1464.84305,301.33938
1466.45881,301.33938
1468.07456,301.33938
1469.69032,301.33938
1471.30607,301.33938
1472.92183,301.33938
1474.53759,301.33938
1476.15334,301.33938
1477.7691,301.33938
1479.38485,301.33938
1481.00061,301.33938
1482.61637,301.33938
1484.23212,301.33938
1485.84788,301.33938
1487.46363,301.33938
1489.07939,301.33938
1490.69514,301.33938
1492.3109,301.33938
1493.92666,301.33938
1495.54241,301.33938
1497.15817,300.68155
1498.77392,300.02373
1500.38968,299.3659
1502.00543,298.70808
1503.62119,298.70808
1505.23695,299.3659
1506.8527,300.02373
1508.46846,300.68155
1510.08421,300.68155
1511.69997,300.02373
1513.31573,300.68155
1514.93148,301.33938
1516.54724,301.9972
1518.16299,301.9972
1519.77875,301.9972
1521.3945,301.9972
1523.01026,301.9972
1524.62602,301.9972
1526.24177,301.9972
1527.85753,301.9972
1529.47328,301.9972
1531.08904,301.9972
1532.70479,301.33938
1534.32055,300.68155
1535.93631,301.33938
1537.55206,301.9972
1539.16782,301.9972
1540.78357,301.9972
1542.39933,301.33938
1544.01508,300.68155
1545.63084,301.33938
1547.2466,301.9972
1548.86235,302.65502
1550.47811,303.31285
1552.09386,303.97067
1553.70962,303.97067
1555.32538,303.97067
1556.94113,304.6285
1558.55689,305.28632
1560.17264,305.28632
1561.7884,305.94415
1563.40415,305.94415
1565.01991,305.94415
1566.63567,306.60197
1568.25142,306.60197
1569.86718,306.60197
1571.48293,306.60197
1573.09869,307.2598
1574.71444,307.2598
1576.3302,307.2598
1577.94596,306.60197
1579.56171,305.94415
1581.17747,305.28632
1582.79322,304.6285
1584.40898,304.6285
1586.02474,304.6285
1587.64049,304.6285
1589.25625,304.6285
1590.872,304.6285
1592.48776,304.6285
1594.10351,303.97067
1595.71927,303.97067
1597.33503,304.6285
1598.95078,303.97067
1600.56654,303.97067
1602.18229,303.31285
1603.79805,302.65502
1605.4138,302.65502
1607.02956,302.65502
1608.64532,302.65502
1610.26107,301.9972
1611.87683,301.9972
1613.49258,302.65502
1615.10834,301.9972
1616.72409,301.9972
1618.33985,301.33938
1619.95561,301.33938
1621.57136,301.9972
1623.18712,301.33938
1624.80287,301.33938
1626.41863,300.68155
1628.03439,300.68155
1629.65014,300.68155
1631.2659,300.68155
1632.88165,300.68155
1634.49741,300.68155
1636.11316,300.02373
1637.72892,300.02373
1639.34468,300.02373
1640.96043,300.02373
1642.57619,300.02373
1644.19194,300.02373
1645.8077,299.3659
1647.42345,299.3659
1649.03921,299.3659
1650.65497,299.3659
1652.27072,299.3659
1653.88648,299.3659
1655.50223,299.3659
1657.11799,299.3659
1658.73375,299.3659
1660.3495,299.3659
1661.96526,299.3659
1663.58101,299.3659
1665.19677,299.3659
1666.81252,299.3659
1668.42828,298.70808
1670.04404,298.70808
1671.65979,298.70808
1673.27555,298.70808
1674.8913,298.70808
1676.50706,298.70808
1678.12281,298.70808
1679.73857,298.70808
1681.35433,298.70808
1682.97008,298.70808
1684.58584,298.70808
1686.20159,298.70808
1687.81735,298.70808
1689.4331,298.70808
1691.04886,298.70808
1692.66462,298.70808
1694.28037,298.70808
1695.89613,298.70808
1697.51188,298.70808
1699.12764,298.70808
1700.7434,298.70808
1702.35915,298.70808
1703.97491,298.70808
1705.59066,298.70808
1707.20642,298.70808
1708.82217,298.70808
1710.43793,298.70808
1712.05369,298.70808
1713.66944,298.70808
1715.2852,298.70808
1716.90095,298.70808
1718.51671,298.70808
1720.13246,298.70808
1721.74822,298.70808
1723.36398,298.70808
1724.97973,298.70808
1726.59549,298.70808
1728.21124,298.70808
1729.827,298.70808
1731.44276,298.70808
1733.05851,298.70808
1734.67427,298.70808
1736.29002,298.70808
1737.90578,298.70808
1739.52153,298.70808
1741.13729,298.70808
1742.75305,298.70808
1744.3688,298.70808
1745.98456,298.70808
1747.60031,298.70808
1749.21607,298.70808
1750.83182,298.70808
1752.44758,298.70808
1754.06334,298.70808
1755.67909,298.70808
1757.29485,298.70808
1758.9106,298.70808
1760.52636,298.70808
1762.14211,298.70808
1763.75787,298.70808
1765.37363,298.70808
1766.98938,298.70808
1768.60514,298.70808
1770.22089,298.70808
1771.83665,298.70808
1773.45241,298.70808
1775.06816,298.70808
1776.68392,298.70808
1778.29967,298.70808
1779.91543,298.70808
1781.53118,298.70808
1783.14694,298.70808
1784.7627,298.70808
1786.37845,298.70808
1787.99421,298.70808
1789.60996,298.70808
1791.22572,298.70808
1792.84147,298.70808
1794.45723,298.70808
1796.07299,298.70808
1797.68874,298.70808
1799.3045,298.70808
1800.92025,298.70808
1802.53601,298.70808
1804.15177,298.70808
1805.76752,298.70808
1807.38328,298.70808
1808.99903,298.70808
1810.61479,298.70808
1812.23054,298.70808
1813.8463,298.70808
1815.46206,298.05025
1817.07781,298.05025
1818.69357,298.05025
1820.30932,298.05025
1821.92508,298.05025
1823.54083,298.05025
1825.15659,298.05025
1826.77235,298.05025
1828.3881,298.70808
1830.00386,299.3659
1831.61961,300.02373
1833.23537,300.68155
1834.85112,300.68155
1836.46688,300.68155
1838.08264,300.68155
1839.69839,300.68155
1841.31415,300.68155
1842.9299,300.68155
1844.54566,300.68155
1846.16142,300.68155
1847.77717,300.68155
1849.39293,300.68155
1851.00868,300.68155
1852.62444,300.68155
1854.24019,300.68155
1855.85595,300.68155
1857.47171,300.68155
1859.08746,300.68155
1860.70322,300.68155
1862.31897,300.68155
1863.93473,300.68155
1865.55048,300.68155
1867.16624,300.68155
1868.782,300.68155
1870.39775,300.68155
1872.01351,300.68155
1873.62926,300.68155
1875.24502,300.68155
1876.86078,300.68155
1878.47653,300.68155
1880.09229,300.68155
1881.70804,300.68155
1883.3238,300.68155
1884.93955,300.68155
1886.55531,300.68155
1888.17107,300.68155
1889.78682,300.68155
1891.40258,300.68155
1893.01833,300.68155
1894.63409,300.68155
1896.24984,300.68155
1897.8656,300.68155
1899.48136,300.68155
1901.09711,300.68155
1902.71287,300.68155
1904.32862,300.68155
1905.94438,300.68155
1907.56013,300.68155
1909.17589,300.68155
1910.79165,300.68155
1912.4074,300.68155
1914.02316,300.68155
1915.63891,300.68155
1917.25467,300.68155
1918.87043,300.68155
1920.48618,300.68155
1922.10194,300.68155
1923.71769,300.68155
1925.33345,300.68155
1926.9492,300.68155
1928.56496,300.68155
1930.18072,300.68155
1931.79647,300.68155
1933.41223,300.68155
1935.02798,300.68155
1936.64374,300.68155
1938.25949,300.68155
1939.87525,300.68155
1941.49101,300.68155
1943.10676,300.68155
1944.72252,300.68155
1946.33827,300.68155
1947.95403,300.68155
1949.56979,300.68155
1951.18554,300.68155
1952.8013,300.68155
1954.41705,300.68155
1956.03281,300.68155
1957.64856,300.68155
1959.26432,300.68155
1960.88008,300.68155
1962.49583,300.68155
1964.11159,300.68155
1965.72734,300.68155
1967.3431,300.68155
1968.95885,300.68155
1970.57461,301.33938
1972.19037,301.33938
1973.80612,301.33938
1975.42188,301.33938
1977.03763,301.33938
1978.65339,301.33938
1980.26914,301.33938
1981.8849,301.33938
1983.50066,301.33938
1985.11641,301.33938
1986.73217,301.33938
1988.34792,301.33938
1989.96368,301.33938
1991.57944,301.33938
1993.19519,301.33938
1994.81095,301.33938
1996.4267,301.33938
1998.04246,301.33938
1999.65821,301.33938
2001.27397,301.33938
2002.88973,301.33938
2004.50548,301.33938
2006.12124,301.33938
2007.73699,301.33938
2009.35275,301.33938
2010.9685,301.33938
2012.58426,301.33938
2014.20002,301.33938
2015.81577,301.33938
2017.43153,301.33938
2019.04728,301.33938
2020.66304,301.33938
2022.2788,301.33938
2023.89455,301.33938
2025.51031,301.33938
2027.12606,301.33938
2028.74182,301.33938
2030.35757,301.33938
2031.97333,301.33938
2033.58909,301.33938
2035.20484,301.33938
2036.8206,301.33938
2038.43635,301.33938
2040.05211,301.33938
2041.66786,301.33938
2043.28362,301.33938
2044.89938,301.33938
2046.51513,301.33938
2048.13089,301.33938
2049.74664,301.33938
2051.3624,301.33938
2052.97815,301.33938
2054.59391,301.33938
2056.20967,301.33938
2057.82542,301.33938
2059.44118,301.33938
2061.05693,301.33938
2062.67269,301.33938
2064.28845,301.33938
2065.9042,301.33938
2067.51996,301.33938
2069.13571,301.33938
2070.75147,301.33938
2072.36722,301.33938
2073.98298,301.33938
2075.59874,301.33938
2077.21449,301.33938
2078.83025,301.33938
2080.446,301.33938
2082.06176,301.33938
2083.67751,301.33938
2085.29327,301.33938
2086.90903,301.33938
2088.52478,301.33938
2090.14054,301.33938
2091.75629,301.33938
2093.37205,301.33938
2094.98781,301.33938
2096.60356,301.33938
2098.21932,301.33938
2099.83507,301.33938
2101.45083,301.33938
2103.06658,301.33938
2104.68234,301.33938
2106.2981,301.33938
2107.91385,301.33938
2109.52961,301.33938
2111.14536,301.33938
2112.76112,301.33938
2114.37687,301.33938
2115.99263,301.33938
2117.60839,301.33938
2119.22414,301.33938
2120.8399,301.33938
2122.45565,301.33938
2124.07141,301.33938
2125.68716,301.33938
2127.30292,301.33938
2128.91868,301.33938
2130.53443,301.33938
2132.15019,301.33938
2133.76594,301.33938
2135.3817,301.33938
2136.99746,301.33938
2138.61321,301.33938
2140.22897,301.33938
2141.84472,301.33938
2143.46048,301.33938
2145.07623,301.33938
2146.69199,301.33938
2148.30775,301.33938
2149.9235,301.33938
2151.53926,301.33938
2153.15501,301.33938
2154.77077,301.33938
2156.38652,301.33938
2158.00228,301.33938
2159.61804,301.33938
2161.23379,301.33938
2162.84955,301.33938
2164.4653,301.33938
2166.08106,301.33938
2167.69682,301.33938
2169.31257,301.33938
2170.92833,301.33938
2172.54408,301.33938
2174.15984,301.33938
2175.77559,301.33938
2177.39135,301.33938
2179.00711,301.33938
2180.62286,301.33938
2182.23862,301.33938
2183.85437,301.33938
2185.47013,301.33938
2187.08588,301.33938
2188.70164,301.33938
2190.3174,301.33938
2191.93315,301.33938
2193.54891,301.33938
2195.16466,301.33938
2196.78042,301.33938
2198.39617,301.33938
2200.01193,301.33938
2201.62769,301.33938
2203.24344,301.33938
2204.8592,301.33938
2206.47495,301.33938
2208.09071,301.33938
2209.70647,301.33938
2211.32222,301.33938
2212.93798,301.33938
2214.55373,301.33938
2216.16949,301.33938
2217.78524,301.33938
2219.401,301.33938
2221.01676,301.33938
2222.63251,301.33938
2224.24827,301.33938
2225.86402,301.33938
2227.47978,301.33938
2229.09553,301.33938
2230.71129,301.33938
2232.32705,301.33938
2233.9428,301.33938
2235.55856,301.33938
2237.17431,301.33938
2238.79007,301.33938
2240.40583,301.33938
2242.02158,301.33938
2243.63734,301.33938
2245.25309,301.33938
2246.86885,301.33938
2248.4846,301.33938
2250.10036,301.33938
2251.71612,301.33938
2253.33187,301.33938
2254.94763,301.33938
2256.56338,301.33938
2258.17914,301.33938
2259.79489,301.33938
2261.41065,301.33938
2263.02641,301.33938
2264.64216,301.33938
2266.25792,301.33938
2267.87367,301.33938
2269.48943,301.33938
2271.10518,301.33938
2272.72094,301.33938
2274.3367,301.33938
2275.95245,301.33938
2277.56821,301.33938
2279.18396,301.33938
2280.79972,301.33938
2282.41548,301.33938
2284.03123,301.33938
2285.64699,301.33938
2287.26274,301.33938
2288.8785,301.33938
2290.49425,301.33938
2292.11001,301.33938
2293.72577,301.33938
2295.34152,301.33938
2296.95728,301.33938
2298.57303,301.33938
2300.18879,301.33938
2301.80454,301.33938
2303.4203,301.33938
2305.03606,301.33938
2306.65181,301.33938
2308.26757,301.33938
2309.88332,300.68155
2311.49908,300.02373
2313.11484,299.3659
2314.73059,299.3659
2316.34635,299.3659
2317.9621,299.3659
2319.57786,299.3659
2321.19361,299.3659
2322.80937,299.3659
2324.42513,299.3659
2326.04088,300.02373
2327.65664,299.3659
2329.27239,299.3659
2330.88815,299.3659
2332.5039,299.3659
2334.11966,299.3659
2335.73542,299.3659
2337.35117,299.3659
2338.96693,299.3659
2340.58268,299.3659
2342.19844,300.02373
2343.81419,300.68155
2345.42995,301.33938
2347.04571,301.33938
2348.66146,301.33938
2350.27722,301.33938
2351.89297,301.33938
2353.50873,301.33938
2355.12449,301.33938
2356.74024,301.33938
2358.356,301.33938
2359.97175,301.33938
2361.58751,301.33938
2363.20326,301.33938
2364.81902,301.33938
2366.43478,301.33938
2368.05053,301.33938
2369.66629,301.33938
2371.28204,301.33938
2372.8978,301.33938
2374.51355,301.33938
2376.12931,301.33938
2377.74507,301.33938
2379.36082,301.33938
2380.97658,301.33938
2382.59233,301.33938
2384.20809,301.33938
2385.82385,301.33938
2387.4396,301.33938
2389.05536,301.33938
2390.67111,301.33938
2392.28687,301.33938
2393.90262,301.33938
2395.51838,301.33938
2397.13414,301.33938
2398.74989,301.33938
2400.36565,301.33938
2401.9814,301.33938
2403.59716,301.33938
2405.21291,301.33938
2406.82867,301.33938
2408.44443,301.33938
2410.06018,301.33938
2411.67594,301.33938
2413.29169,301.33938
2414.90745,301.33938
2416.5232,301.33938
2418.13896,301.33938
2419.75472,301.33938
2421.37047,301.33938
2422.98623,301.33938
2424.60198,301.33938
2426.21774,301.33938
2427.8335,301.33938
2429.44925,301.33938
2431.06501,301.33938
2432.68076,301.33938
2434.29652,301.33938
2435.91227,301.33938
2437.52803,301.33938
2439.14379,301.33938
2440.75954,301.33938
2442.3753,301.33938
2443.99105,301.33938
2445.60681,301.33938
2447.22256,301.33938
2448.83832,301.33938
2450.45408,301.33938
2452.06983,301.33938
2453.68559,301.33938
2455.30134,301.33938
2456.9171,301.33938
2458.53286,301.33938
2460.14861,301.33938
2461.76437,301.33938
2463.38012,301.33938
2464.99588,301.33938
2466.61163,301.33938
2468.22739,301.33938
2469.84315,301.33938
2471.4589,301.33938
2473.07466,301.33938
2474.69041,301.33938
2476.30617,301.33938
2477.92192,301.33938
2479.53768,301.33938
2481.15344,301.33938
2482.76919,301.33938
2484.38495,301.33938
2486.0007,301.33938
2487.61646,301.33938
2489.23221,301.33938
2490.84797,301.33938
2492.46373,301.33938
2494.07948,301.33938
2495.69524,301.33938
2497.31099,301.33938
2498.92675,301.33938
2500.54251,301.33938
2502.15826,301.33938
2503.77402,301.33938
2505.38977,301.33938
2507.00553,301.33938
2508.62128,301.33938
2510.23704,301.33938
2511.8528,301.33938
2513.46855,301.33938
2515.08431,301.33938
2516.70006,301.33938
2518.31582,301.33938
2519.93157,301.33938
2521.54733,301.33938
2523.16309,301.33938
2524.77884,301.33938
2526.3946,301.33938
2528.01035,301.33938
2529.62611,301.33938
2531.24187,301.33938
2532.85762,301.33938
2534.47338,301.33938
2536.08913,301.33938
2537.70489,301.33938
2539.32064,301.33938
2540.9364,301.33938
2542.55216,301.33938
2544.16791,301.33938
2545.78367,301.33938
2547.39942,301.33938
2549.01518,301.33938
2550.63093,301.33938
2552.24669,301.33938
2553.86245,301.33938
2555.4782,301.33938
2557.09396,301.33938
2558.70971,301.33938
2560.32547,301.33938
2561.94122,301.33938
2563.55698,301.33938
2565.17274,301.33938
2566.78849,301.33938
2568.40425,301.33938
2570.02,301.33938
2571.63576,301.33938
2573.25152,301.33938
2574.86727,301.33938
2576.48303,301.33938
2578.09878,301.33938
2579.71454,301.33938
2581.33029,301.33938
2582.94605,301.33938
2584.56181,301.33938
2586.17756,301.33938
2587.79332,301.33938
2589.40907,301.33938
2591.02483,301.33938
2592.64058,301.33938
2594.25634,301.33938
2595.8721,301.33938
2597.48785,301.33938
2599.10361,301.33938
2600.71936,301.33938
2602.33512,301.33938
2603.95088,301.33938
2605.56663,301.33938
2607.18239,301.33938
2608.79814,301.33938
2610.4139,301.33938
2612.02965,301.33938
2613.64541,301.33938
2615.26117,301.33938
2616.87692,301.33938
2618.49268,301.33938
2620.10843,301.33938
2621.72419,301.33938
2623.33994,301.33938
2624.9557,301.33938
2626.57146,301.33938
2628.18721,301.33938
2629.80297,301.33938
2631.41872,301.33938
2633.03448,301.33938
2634.65023,301.33938
2636.26599,301.33938
2637.88175,301.33938
2639.4975,301.33938
2641.11326,301.33938
2642.72901,301.33938
2644.34477,301.33938
2645.96053,301.33938
2647.57628,301.33938
2649.19204,301.33938
2650.80779,301.33938
2652.42355,301.33938
2654.0393,301.33938
2655.65506,301.33938
2657.27082,301.33938
2658.88657,301.33938
2660.50233,301.33938
2662.11808,301.33938
2663.73384,301.33938
2665.34959,301.33938
2666.96535,301.33938
2668.58111,301.33938
2670.19686,301.33938
2671.81262,301.33938
2673.42837,301.33938
2675.04413,301.33938
2676.65989,301.33938
2678.27564,301.33938
2679.8914,301.33938
2681.50715,301.33938
2683.12291,301.33938
2684.73866,301.33938
2686.35442,301.33938
2687.97018,301.33938
2689.58593,301.33938
2691.20169,301.33938
2692.81744,301.33938
2694.4332,301.33938
2696.04895,301.33938
2697.66471,301.33938
2699.28047,301.33938
2700.89622,301.33938
2702.51198,301.33938
2704.12773,301.33938
2705.74349,301.33938
2707.35924,301.33938
2708.975,301.33938
2710.59076,301.33938
2712.20651,301.33938
2713.82227,301.33938
2715.43802,301.33938
2717.05378,301.33938
2718.66954,301.33938
2720.28529,301.33938
2721.90105,301.33938
2723.5168,301.33938
2725.13256,301.33938
2726.74831,301.33938
2728.36407,301.33938
2729.97983,301.33938
2731.59558,301.33938
2733.21134,301.33938
2734.82709,301.33938
2736.44285,301.33938
2738.0586,301.33938
2739.67436,301.33938
2741.29012,301.33938
2742.90587,301.33938
2744.52163,301.33938
2746.13738,301.33938
2747.75314,301.33938
2749.3689,301.33938
2750.98465,301.33938
2752.60041,301.33938
2754.21616,301.33938
2755.83192,301.33938
2757.44767,301.33938
2759.06343,301.33938
2760.67919,301.33938
2762.29494,301.33938
2763.9107,301.33938
2765.52645,301.33938
2767.14221,301.33938
2768.75796,301.33938
2770.37372,301.33938
2771.98948,301.33938
2773.60523,301.33938
2775.22099,301.33938
2776.83674,301.33938
2778.4525,301.33938
2780.06825,301.33938
2781.68401,301.33938
2783.29977,301.33938
2784.91552,301.33938
2786.53128,301.33938
2788.14703,301.33938
2789.76279,301.33938
2791.37855,301.33938
2792.9943,301.33938
2794.61006,301.33938
2796.22581,301.33938
2797.84157,301.33938
2799.45732,301.33938
2801.07308,300.68155
2802.68884,300.02373
2804.30459,299.3659
2805.92035,299.3659
2807.5361,299.3659
2809.15186,299.3659
2810.76761,299.3659
2812.38337,299.3659
2813.99913,299.3659
2815.61488,299.3659
2817.23064,299.3659
2818.84639,299.3659
2820.46215,300.02373
2822.07791,300.02373
2823.69366,300.02373
2825.30942,300.02373
2826.92517,300.02373
2828.54093,300.02373
2830.15668,300.02373
2831.77244,300.02373
2833.3882,300.02373
2835.00395,300.02373
2836.61971,300.02373
2838.23546,300.02373
2839.85122,300.02373
2841.46697,300.02373
2843.08273,300.02373
2844.69849,300.02373
2846.31424,300.02373
2847.93,300.02373
2849.54575,300.02373
2851.16151,300.02373
2852.77726,300.02373
2854.39302,300.02373
2856.00878,300.02373
2857.62453,300.02373
2859.24029,300.02373
2860.85604,300.02373
2862.4718,300.02373
2864.08756,300.02373
2865.70331,300.02373
2867.31907,299.3659
2868.93482,300.02373
2870.55058,300.68155
2872.16633,301.33938
2873.78209,301.9972
2875.39785,301.9972
2877.0136,301.9972
2878.62936,301.9972
2880.24511,301.9972
2881.86087,301.9972
2883.47662,301.9972
2885.09238,301.9972
2886.70814,301.9972
2888.32389,301.9972
2889.93965,301.9972
2891.5554,301.9972
2893.17116,301.9972
2894.78692,301.9972
2896.40267,301.9972
2898.01843,301.9972
2899.63418,301.9972
2901.24994,301.9972
2902.86569,301.9972
2904.48145,301.9972
2906.09721,301.9972
2907.71296,301.9972
2909.32872,301.9972
2910.94447,301.9972
2912.56023,301.9972
2914.17598,301.9972
2915.79174,301.9972
2917.4075,301.9972
2919.02325,301.9972
2920.63901,301.9972
2922.25476,301.9972
2923.87052,301.9972
2925.48627,301.9972
2927.10203,301.9972
2928.71779,301.9972
2930.33354,301.9972
2931.9493,301.9972
2933.56505,301.9972
2935.18081,301.9972
2936.79657,301.9972
2938.41232,301.9972
2940.02808,301.9972
2941.64383,301.9972
2943.25959,301.9972
2944.87534,301.9972
2946.4911,301.9972
2948.10686,301.9972
2949.72261,301.9972
2951.33837,301.9972
2952.95412,301.9972
2954.56988,301.9972
2956.18563,301.9972
2957.80139,301.9972
2959.41715,301.9972
2961.0329,301.9972
2962.64866,301.9972
2964.26441,301.9972
2965.88017,301.9972
2967.49593,301.9972
2969.11168,301.9972
2970.72744,301.9972
2972.34319,301.9972
2973.95895,301.9972
2975.5747,301.9972
2977.19046,301.9972
2978.80622,301.9972
2980.42197,301.9972
2982.03773,301.9972
2983.65348,301.9972
2985.26924,301.9972
2986.88499,301.9972
2988.50075,301.9972
2990.11651,301.33938
2991.73226,300.68155
2993.34802,300.02373
2994.96377,299.3659
2996.57953,299.3659
2998.19528,299.3659
2999.81104,300.02373
3001.4268,300.68155
3003.04255,301.33938
3004.65831,301.33938
3006.27406,300.68155
3007.88982,301.33938
3009.50558,301.9972
3011.12133,301.9972
3012.73709,301.9972
3014.35284,301.33938
3015.9686,300.68155
3017.58435,300.02373
3019.20011,300.02373
3020.81587,300.02373
3022.43162,300.02373
3024.04738,300.02373
3025.66313,300.02373
3027.27889,300.02373
3028.89464,300.02373
3030.5104,300.02373
3032.12616,300.02373
3033.74191,300.02373
3035.35767,300.02373
3036.97342,300.02373
3038.58918,300.02373
3040.20494,300.02373
3041.82069,300.02373
3043.43645,300.02373
3045.0522,300.02373
3046.66796,300.68155
3048.28371,300.68155
3049.89947,300.68155
3051.51523,300.68155
3053.13098,300.68155
3054.74674,300.68155
3056.36249,300.68155
3057.97825,300.68155
3059.594,300.68155
3061.20976,300.68155
3062.82552,300.68155
3064.44127,300.68155
3066.05703,300.68155
3067.67278,300.68155
3069.28854,300.68155
3070.90429,300.68155
3072.52005,301.33938
3074.13581,301.33938
3075.75156,301.33938
3077.36732,301.33938
3078.98307,301.33938
3080.59883,301.33938
3082.21459,301.33938
3083.83034,301.33938
3085.4461,301.33938
3087.06185,301.33938
3088.67761,301.33938
3090.29336,301.33938
3091.90912,301.33938
3093.52488,301.9972
3095.14063,301.9972
3096.75639,301.9972
3098.37214,302.65502
3099.9879,301.9972
3101.60365,301.9972
3103.21941,301.9972
3104.83517,302.65502
3106.45092,302.65502
3108.06668,303.31285
3109.68243,302.65502
3111.29819,302.65502
3112.91395,303.31285
3114.5297,303.31285
3116.14546,303.97067
3117.76121,303.31285
3119.37697,303.31285
3120.99272,303.97067
3122.60848,303.97067
3124.22424,304.6285
3125.83999,304.6285
3127.45575,305.28632
3129.0715,304.6285
3130.68726,304.6285
3132.30301,304.6285
3133.91877,304.6285
3135.53453,305.28632
3137.15028,305.28632
3138.76604,305.94415
3140.38179,305.94415
3141.99755,306.60197
3143.6133,307.2598
3145.22906,307.2598
3146.84482,307.2598
3148.46057,307.2598
3150.07633,307.2598
3151.69208,307.2598
3153.30784,307.91762
3154.9236,307.91762
3156.53935,308.57544
3156.53935,309.23327
3156.53935,309.89109
3156.53935,310.54892
3156.53935,311.20674
3158.15511,311.20674
3159.77086,310.54892
3161.38662,309.89109
3163.00237,310.54892
3164.61813,309.89109
3166.23389,309.89109
3167.84964,309.89109
3169.4654,310.54892
3171.08115,310.54892
3172.69691,311.20674
3172.69691,311.86457
3172.69691,312.52239
3172.69691,313.18022
3174.31266,312.52239
3175.92842,311.86457
3177.54418,311.86457
3179.15993,312.52239
3180.77569,312.52239
3182.39144,312.52239
3184.0072,312.52239
3185.62296,313.18022
3187.23871,313.18022
3188.85447,313.83804
3190.47022,313.83804
3192.08598,313.83804
3193.70173,313.83804
3195.31749,314.49586
3196.93325,313.83804
3198.549,313.83804
3200.16476,314.49586
3201.78051,314.49586
3203.39627,315.15369
3205.01202,314.49586
3206.62778,314.49586
3208.24354,315.15369
3209.85929,315.15369
3211.47505,315.81151
3213.0908,315.15369
3214.70656,315.15369
3216.32231,315.81151
3217.93807,316.46934
3219.55383,316.46934
3221.16958,316.46934
3222.78534,316.46934
3224.40109,316.46934
3226.01685,316.46934
3227.63261,316.46934
3229.24836,316.46934
3230.86412,317.12716
3232.47987,317.12716
3234.09563,317.78499
3235.71138,317.78499
3237.32714,317.78499
3238.9429,318.44281
3238.9429,319.10064
3238.9429,319.75846
3238.9429,320.41628
3238.9429,321.07411
3240.55865,321.73193
3242.17441,321.73193
3243.79016,321.73193
3243.79016,322.38976
3245.40592,322.38976
3247.02167,322.38976
3247.02167,323.04758
3248.63743,323.70541
3250.25319,323.70541
3251.86894,323.70541
3251.86894,324.36323
3253.4847,325.02106
3255.10045,325.67888
3256.71621,325.67888
3258.33197,325.67888
3258.33197,326.3367
3259.94772,326.3367
3259.94772,326.99453
3261.56348,326.99453
3261.56348,327.65235
3263.17923,327.65235
3263.17923,328.31018
3264.79499,328.31018
3266.41074,328.31018
3266.41074,328.968
3268.0265,328.968
3268.0265,329.62583
3269.64226,329.62583
3271.25801,330.28365
3271.25801,330.94147
3271.25801,331.5993
3272.87377,331.5993
3272.87377,332.25712
3274.48952,332.25712
3276.10528,332.25712
3277.72103,332.25712
3279.33679,332.25712
3280.95255,332.25712
3280.95255,332.91495
3282.5683,333.57277
3282.5683,334.2306
3284.18406,334.2306
3285.79981,334.88842
3285.79981,335.54625
3285.79981,336.20407
3287.41557,336.20407
3287.41557,336.86189
3289.03132,336.86189
3289.03132,337.51972
3289.03132,338.17754
3290.64708,338.17754
3290.64708,338.83537
3290.64708,339.49319
3292.26284,339.49319
3292.26284,340.15102
3292.26284,340.80884
3293.87859,340.80884
3293.87859,341.46667
3293.87859,342.12449
3295.49435,342.12449
3295.49435,342.78231
3297.1101,343.44014
3297.1101,344.09796
3298.72586,344.09796
3298.72586,344.75579
3298.72586,345.41361
3298.72586,346.07144
3300.34162,346.72926
3300.34162,353.96533
3301.95737,348.04491
3301.95737,347.38709
3301.95737,354.62315
3301.95737,355.28098
3301.95737,353.30751
3301.95737,352.64968
3303.57313,350.01838
3303.57313,348.70273
3303.57313,349.36056
3303.57313,350.67621
3303.57313,351.99186
3303.57313,356.59663
3303.57313,357.91228
3303.57313,355.9388
3303.57313,357.25445
3305.18888,351.33403
3305.18888,350.67621
3305.18888,358.5701
3306.80464,358.5701
3306.80464,360.54357
3308.42039,361.2014
3308.42039,359.88575
3308.42039,358.5701
3310.03615,363.17487
3310.03615,359.22793
3310.03615,358.5701
3310.03615,361.85922
3310.03615,365.14835
3310.03615,364.49052
3310.03615,363.8327
3311.65191,358.5701
3311.65191,362.51705
3311.65191,365.80617
3313.26766,366.46399
3313.26766,367.12182
3313.26766,369.09529
3313.26766,368.43747
3314.88342,367.77964
3314.88342,369.75312
3316.49917,370.41094
3316.49917,371.06877
3318.11493,371.72659
3318.11493,372.38441
3318.11493,373.04224
3318.11493,373.70006
3319.73068,374.35789
3319.73068,375.01571
3321.34644,375.67354
3321.34644,376.33136
3322.9622,376.98919
3322.9622,377.64701
3322.9622,378.30483
3324.57795,378.96266
3324.57795,379.62048
3326.19371,378.96266
3326.19371,380.27831
3326.19371,380.93613
3326.19371,381.59396
3326.19371,382.25178
3327.80946,382.90961
3327.80946,383.56743
3327.80946,384.22525
3329.42522,384.22525
3331.04098,384.22525
3332.65673,384.22525
3334.27249,384.88308
3334.27249,385.5409
3335.88824,385.5409
3335.88824,386.19873
3335.88824,386.85655
3337.504,386.85655
3339.11975,386.85655
3339.11975,387.51438
3339.11975,388.1722
3340.73551,388.1722
3342.35127,388.83003
3342.35127,389.48785
3343.96702,390.14567
3343.96702,390.8035
3343.96702,391.46132
3345.58278,391.46132
3345.58278,392.11915
3347.19853,392.11915
3347.19853,392.77697
3348.81429,392.77697
3348.81429,393.4348
3348.81429,394.09262
3348.81429,394.75045
3348.81429,395.40827
3348.81429,396.06609
3348.81429,396.72392
3350.43004,396.72392
3352.0458,396.72392
3352.0458,397.38174
3353.66156,397.38174
3355.27731,396.72392
3356.89307,396.06609
3358.50882,395.40827
3360.12458,395.40827
3361.74033,396.06609
3363.35609,396.72392
3364.97185,397.38174
3366.5876,397.38174
3368.20336,397.38174
3368.20336,396.72392
3368.20336,396.06609
3368.20336,395.40827
3368.20336,394.75045
3368.20336,394.09262
3369.81911,394.09262
3371.43487,394.09262
3371.43487,393.4348
3373.05063,393.4348
3373.05063,392.77697
3374.66638,392.77697
3376.28214,392.11915
3377.89789,392.11915
3379.51365,392.11915
3379.51365,391.46132
3381.1294,391.46132
3381.1294,390.8035
3382.74516,390.14567
3384.36092,389.48785
3385.97667,389.48785
3387.59243,389.48785
3387.59243,388.83003
3389.20818,388.83003
3389.20818,388.1722
3390.82394,388.1722
3390.82394,387.51438
3392.43969,387.51438
3394.05545,387.51438
3395.67121,387.51438
3397.28696,387.51438
3398.90272,387.51438
3400.51847,387.51438
3400.51847,386.85655
3400.51847,386.19873
3402.13423,386.19873
3403.74999,386.19873
3405.36574,386.19873
3405.36574,385.5409
3405.36574,384.88308
3405.36574,384.22525
3406.9815,384.22525
3408.59725,384.22525
3410.21301,384.22525
3410.21301,383.56743
3410.21301,382.90961
3410.21301,382.25178
3410.21301,381.59396
3411.82876,381.59396
3411.82876,380.93613
3413.44452,380.93613
3413.44452,380.27831
3415.06028,380.27831
3416.67603,380.27831
3416.67603,379.62048
3418.29179,379.62048
3418.29179,378.96266
3419.90754,378.96266
3419.90754,378.30483
3421.5233,378.30483
3423.13905,378.30483
3424.75481,378.30483
3426.37057,378.96266
3427.98632,379.62048
3429.60208,379.62048
3431.21783,379.62048
3432.83359,379.62048
3434.44934,379.62048
3436.0651,379.62048
3437.68086,379.62048
3439.29661,378.96266
3440.91237,378.30483
3442.52812,377.64701
3444.14388,376.98919
3445.75964,376.98919
3447.37539,376.98919
3448.99115,376.98919
3450.6069,377.64701
3452.22266,377.64701
3453.83841,377.64701
3455.45417,378.30483
3457.06993,378.30483
3457.06993,378.96266
3457.06993,379.62048
3457.06993,380.27831
3457.06993,380.93613
3457.06993,381.59396
3458.68568,381.59396
3460.30144,382.25178
3461.91719,382.25178
3463.53295,382.25178
3463.53295,382.90961
3465.1487,382.90961
3466.76446,382.90961
3466.76446,383.56743
3468.38022,384.22525
3469.99597,384.22525
3471.61173,384.22525
3471.61173,384.88308
3473.22748,384.88308
3473.22748,385.5409
3474.84324,385.5409
3474.84324,386.19873
3476.459,386.19873
3478.07475,386.19873
3479.69051,386.19873
3481.30626,386.19873
3481.30626,386.85655
3481.30626,387.51438
3482.92202,387.51438
3484.53777,387.51438
3486.15353,387.51438
3487.76929,387.51438
3487.76929,388.1722
3487.76929,388.83003
3487.76929,389.48785
3489.38504,389.48785
3489.38504,390.14567
3489.38504,390.8035
3491.0008,390.8035
3492.61655,390.8035
3492.61655,391.46132
3494.23231,391.46132
3495.84806,391.46132
3497.46382,390.8035
3499.07958,391.46132
3500.69533,392.11915
3502.31109,392.11915
3503.92684,392.11915
3505.5426,391.46132
3507.15835,391.46132
3507.15835,390.8035
3507.15835,390.14567
3507.15835,389.48785
3507.15835,388.83003
3508.77411,388.83003
3508.77411,388.1722
3510.38987,388.1722
3510.38987,387.51438
3512.00562,387.51438
3512.00562,386.85655
3512.00562,386.19873
3513.62138,386.19873
3515.23713,386.19873
3515.23713,385.5409
3516.85289,385.5409
3518.46865,385.5409
3520.0844,385.5409
3521.70016,385.5409
3521.70016,384.88308
3523.31591,384.88308
3523.31591,384.22525
3523.31591,383.56743
3524.93167,383.56743
3524.93167,382.90961
3524.93167,382.25178
3526.54742,382.25178
3526.54742,381.59396
3526.54742,380.93613
3528.16318,380.93613
3528.16318,380.27831
3528.16318,379.62048
3529.77894,379.62048
3529.77894,378.96266
3529.77894,378.30483
3531.39469,378.30483
3531.39469,377.64701
3531.39469,376.98919
3533.01045,376.98919
3533.01045,376.33136
3533.01045,375.67354
3533.01045,375.01571
3533.01045,372.38441
3534.6262,374.35789
3534.6262,373.70006
3534.6262,373.04224
3534.6262,375.01571
3534.6262,372.38441
3536.24196,372.38441
3537.85771,372.38441
3537.85771,371.72659
3537.85771,365.14835
3537.85771,365.80617
3539.47347,371.06877
3539.47347,369.09529
3539.47347,367.12182
3539.47347,367.77964
3539.47347,365.14835
3539.47347,366.46399
3539.47347,369.75312
3539.47347,370.41094
3541.08923,368.43747
3541.08923,365.14835
3542.70498,365.14835
3544.32074,365.14835
3544.32074,361.2014
3545.93649,364.49052
3545.93649,363.17487
3545.93649,362.51705
3545.93649,361.85922
3545.93649,363.8327
3545.93649,361.2014
3547.55225,361.2014
3549.16801,361.2014
3549.16801,360.54357
3549.16801,359.88575
3549.16801,359.22793
3549.16801,358.5701
3549.16801,357.91228
3550.78376,357.91228
3550.78376,352.64968
3552.39952,357.25445
3552.39952,356.59663
3552.39952,355.9388
3552.39952,357.91228
3552.39952,353.30751
3552.39952,352.64968
3554.01527,355.9388
3554.01527,355.28098
3554.01527,353.96533
3554.01527,354.62315
3554.01527,352.64968
3554.01527,351.99186
3555.63103,351.33403
3557.24678,351.33403
3558.86254,351.33403
3558.86254,350.67621
3558.86254,350.01838
3558.86254,344.75579
3558.86254,345.41361
3560.4783,350.01838
3560.4783,346.07144
3560.4783,349.36056
3560.4783,344.75579
3562.09405,347.38709
3562.09405,348.70273
3562.09405,348.04491
3562.09405,346.72926
3562.09405,344.75579
3563.70981,344.75579
3565.32556,344.75579
3566.94132,344.09796
3566.94132,343.44014
3568.55707,342.78231
3568.55707,342.12449
3570.17283,341.46667
3570.17283,340.80884
3570.17283,340.15102
3570.17283,339.49319
3571.78859,338.83537
3573.40434,338.83537
3573.40434,338.17754
3575.0201,338.17754
3575.0201,337.51972
3575.0201,336.86189
3576.63585,336.86189
3576.63585,336.20407
3576.63585,335.54625
3576.63585,334.88842
3578.25161,334.2306
3579.86736,334.2306
3579.86736,333.57277
3581.48312,333.57277
3581.48312,332.91495
3583.09888,332.91495
3583.09888,332.25712
3583.09888,331.5993
3583.09888,330.94147
3584.71463,330.28365
3586.33039,330.28365
3586.33039,329.62583
3587.94614,329.62583
3587.94614,328.968
3589.5619,328.968
3589.5619,328.31018
3591.17766,327.65235
3591.17766,326.99453
3591.17766,326.3367
3592.79341,325.67888
3592.79341,325.02106
3592.79341,324.36323
3592.79341,323.70541
3592.79341,323.04758
3594.40917,323.04758
3596.02492,323.04758
3596.02492,322.38976
3597.64068,322.38976
3597.64068,321.73193
3599.25643,321.73193
3599.25643,321.07411
3599.25643,320.41628
3599.25643,319.75846
3600.87219,319.10064
3602.48795,318.44281
3604.1037,317.78499
3605.71946,317.12716
3607.33521,317.12716
3608.95097,317.12716
3610.56672,317.12716
3610.56672,316.46934
3612.18248,316.46934
3612.18248,315.81151
3613.79824,315.81151
3613.79824,315.15369
3615.41399,315.15369
3617.02975,315.15369
3617.02975,314.49586
3618.6455,314.49586
3620.26126,314.49586
3620.26126,313.83804
3621.87702,313.83804
3621.87702,313.18022
3623.49277,313.18022
3623.49277,312.52239
3625.10853,312.52239
3625.10853,311.86457
3626.72428,311.86457
3628.34004,311.86457
3628.34004,311.20674
3629.95579,311.20674
3631.57155,311.20674
3631.57155,310.54892
3633.18731,310.54892
3634.80306,310.54892
3634.80306,309.89109
3636.41882,309.89109
3638.03457,309.89109
3638.03457,309.23327
3639.65033,309.23327
3641.26608,309.23327
3641.26608,308.57544
3642.88184,308.57544
3644.4976,307.91762
3646.11335,307.91762
3647.72911,307.91762
3649.34486,307.91762
3650.96062,307.2598
3652.57637,306.60197
3654.19213,306.60197
3655.80789,306.60197
3657.42364,307.2598
3659.0394,307.91762
3660.65515,308.57544
3662.27091,307.91762
3663.88667,307.91762
3665.50242,307.2598
3667.11818,307.2598
3668.73393,307.2598
3670.34969,306.60197
3671.96544,306.60197
3673.5812,306.60197
3675.19696,306.60197
3676.81271,306.60197
3678.42847,305.94415
3680.04422,306.60197
3681.65998,306.60197
3683.27573,305.94415
3684.89149,305.28632
3686.50725,305.28632
3688.123,304.6285
3689.73876,305.28632
3691.35451,305.28632
3692.97027,305.28632
3694.58603,305.28632
3696.20178,305.28632
3697.81754,305.28632
3699.43329,304.6285
3701.04905,304.6285
3702.6648,304.6285
3704.28056,303.97067
3705.89632,304.6285
3707.51207,304.6285
3709.12783,304.6285
3710.74358,303.97067
3712.35934,303.97067
3713.97509,303.97067
3715.59085,303.97067
3717.20661,303.97067
3718.82236,303.97067
3720.43812,303.97067
3722.05387,303.97067
3723.66963,303.97067
3725.28538,303.31285
3726.90114,303.31285
3728.5169,303.31285
3730.13265,303.31285
3731.74841,303.31285
3733.36416,302.65502
3734.97992,303.31285
3736.59568,303.31285
3738.21143,303.31285
3739.82719,303.31285
3741.44294,302.65502
3743.0587,302.65502
3744.67445,302.65502
3746.29021,302.65502
3747.90597,302.65502
3749.52172,302.65502
3751.13748,302.65502
3752.75323,302.65502
3754.36899,302.65502
3755.98474,302.65502
3757.6005,301.9972
3759.21626,301.33938
3760.83201,300.68155
3762.44777,300.68155
3764.06352,301.33938
3765.67928,300.68155
3767.29504,300.02373
3768.91079,300.02373
3770.52655,300.02373
3772.1423,300.68155
3773.75806,301.33938
3775.37381,301.9972
3776.98957,301.9972
3778.60533,301.9972
3780.22108,301.9972
3781.83684,301.9972
3783.45259,301.9972
3785.06835,301.33938
3786.6841,300.68155
3788.29986,301.33938
3789.91562,301.9972
3791.53137,301.9972
3793.14713,301.9972
3794.76288,301.9972
3796.37864,301.9972
3797.99439,301.9972
3799.61015,301.9972
3801.22591,301.9972
3802.84166,301.33938
3804.45742,300.68155
3806.07317,300.02373
3807.68893,300.02373
3809.30469,300.02373
3810.92044,299.3659
3812.5362,299.3659
3814.15195,299.3659
3815.76771,299.3659
3817.38346,299.3659
3818.99922,300.02373
3820.61498,300.68155
3822.23073,301.33938
3823.84649,301.33938
3825.46224,301.33938
3827.078,301.33938
3828.69375,301.33938
3830.30951,301.33938
3831.92527,300.68155
3833.54102,300.02373
3835.15678,299.3659
3836.77253,298.70808
3838.38829,298.70808
3840.00405,298.70808
3841.6198,298.70808
3843.23556,298.70808
3844.85131,298.70808
3846.46707,298.70808
3848.08282,298.70808
3849.69858,298.70808
3851.31434,298.70808
3852.93009,298.70808
3854.54585,298.70808
3856.1616,298.70808
3857.77736,298.70808
3859.39311,298.70808
3861.00887,298.70808
3862.62463,298.70808
3864.24038,298.70808
3865.85614,298.70808
3867.47189,298.70808
3869.08765,298.70808
3870.7034,298.70808
3872.31916,298.70808
3873.93492,298.70808
3875.55067,298.70808
3877.16643,298.70808
3878.78218,298.70808
3880.39794,298.70808
3882.0137,298.70808
3883.62945,298.70808
3885.24521,298.70808
3886.86096,298.70808
3888.47672,298.70808
3890.09247,298.70808
3891.70823,298.70808
3893.32399,298.70808
3894.93974,298.70808
3896.5555,298.70808
3898.17125,298.70808
3899.78701,298.70808
3901.40276,298.70808
3903.01852,298.70808
3904.63428,298.70808
3906.25003,298.70808
3907.86579,298.70808
3909.48154,298.70808
3911.0973,298.70808
3912.71306,298.70808
3914.32881,298.70808
3915.94457,298.70808
3917.56032,298.70808
3919.17608,298.70808
3920.79183,298.70808
3922.40759,298.70808
3924.02335,298.70808
3925.6391,298.70808
3927.25486,298.70808
3928.87061,298.70808
3930.48637,298.70808
3932.10212,298.70808
3933.71788,298.70808
3935.33364,298.70808
3936.94939,298.70808
3938.56515,298.70808
3940.1809,298.70808
3941.79666,298.70808
3943.41241,298.70808
3945.02817,298.70808
3946.64393,298.70808
3948.25968,298.70808
3949.87544,298.70808
3951.49119,298.70808
3953.10695,298.70808
3954.72271,298.70808
3956.33846,298.70808
3957.95422,298.70808
3959.56997,298.70808
3961.18573,298.70808
3962.80148,298.70808
3964.41724,298.70808
3966.033,298.70808
3967.64875,298.70808
3969.26451,298.70808
3970.88026,298.70808
3972.49602,298.70808
3974.11177,299.3659
3975.72753,300.02373
3977.34329,300.68155
3978.95904,301.33938
3980.5748,301.33938
3982.19055,301.33938
3983.80631,301.33938
3985.42207,301.33938
3987.03782,301.33938
3988.65358,301.33938
3990.26933,300.68155
3991.88509,300.02373
3993.50084,299.3659
3995.1166,299.3659
3996.73236,299.3659
3998.34811,299.3659
3999.96387,299.3659
3999.96387,295.41896
3999.96387,296.07678
3999.96387,294.76113
3999.96387,296.7346
4001.57962,298.05025
4001.57962,298.70808
4001.57962,297.39243
