Raman Shift,Intensity
151.711,1737.0
153.096,1743.0
154.48,1790.0
155.863,1818.0
157.247,1814.0
158.63,1897.0
160.013,1965.0
161.396,1998.0
162.779,2093.0
164.161,2241.0
165.544,2505.0
166.926,2842.0
168.308,3460.0
169.689,4334.0
171.07,5370.0
172.452,6281.0
173.833,7315.0
175.213,8055.0
176.594,8631.0
177.974,8338.0
179.354,6715.0
180.734,5209.0
182.114,4085.0
183.493,3238.0
184.872,2790.0
186.251,2521.0
187.63,2326.0
189.008,2198.0
190.387,2085.0
191.765,2028.0
193.143,2025.0
194.52,1960.0
195.898,1934.0
197.275,1910.0
198.652,1936.0
200.029,1934.0
201.405,1927.0
202.782,1902.0
204.158,1909.0
205.534,1929.0
206.909,1945.0
208.285,1928.0
209.66,1909.0
211.035,1846.0
212.41,1836.0
213.784,1804.0
215.159,1824.0
216.533,1833.0
217.907,1825.0
219.281,1836.0
220.654,1876.0
222.027,1862.0
223.4,1865.0
224.773,1902.0
226.146,1890.0
227.518,1924.0
228.891,1880.0
230.263,1907.0
231.634,1899.0
233.006,1902.0
234.377,1888.0
235.748,1897.0
237.119,1887.0
238.49,1873.0
239.86,1874.215
241.231,1853.0
242.601,1873.0
243.97,1880.0
245.34,1900.0
246.709,1898.0
248.079,1904.0
249.448,1917.0
250.816,1934.0
252.185,1926.0
253.553,1924.0
254.921,1960.0
256.289,1964.0
257.657,2011.0
259.024,1984.0
260.391,2012.0
261.758,2002.0
263.125,2050.0
264.492,2064.235
265.858,2089.0
267.224,2111.0
268.59,2140.0
269.956,2152.0
271.321,2153.0
272.687,2207.0
274.052,2201.0
275.416,2214.0
276.781,2310.0
278.146,2363.0
279.51,2434.0
280.874,2529.0
282.237,2641.0
283.601,2803.0
284.964,3028.0
286.327,3177.0
287.69,3510.0
289.053,4021.0
290.416,4531.0
291.778,5268.0
293.14,6388.0
294.502,7607.0
295.863,9051.0
297.225,10274.0
298.586,11390.0
299.947,11940.0
301.308,11894.0
302.668,10910.0
304.029,9334.0
305.389,7904.0
306.749,6420.0
308.108,5368.0
309.468,4502.0
310.827,4039.0
312.186,3580.0
313.545,3338.0
314.903,3072.0
316.262,2930.0
317.62,2786.0
318.978,2675.0
320.336,2598.0
321.693,2580.0
323.051,2563.0
324.408,2465.0
325.765,2459.0
327.121,2401.0
328.478,2444.0
329.834,2366.0
331.19,2407.0
332.546,2425.0
333.902,2523.0
335.257,2560.0
336.612,2668.0
337.967,2676.0
339.322,2763.0
340.677,2810.0
342.031,2632.0
343.385,2549.0
344.739,2417.0
346.093,2444.0
347.446,2309.0
348.799,2304.0
350.153,2299.0
351.505,2286.0
352.858,2289.0
354.21,2283.496
355.563,2280.792
356.915,2278.0
358.267,2276.0
359.618,2267.0
360.969,2259.0
362.321,2289.0
363.672,2281.971
365.022,2317.0
366.373,2283.0
367.723,2271.0
369.073,2240.0
370.423,2314.0
371.773,2261.0
373.122,2291.0
374.471,2269.0
375.821,2279.0
377.169,2285.0
378.518,2261.0
379.866,2304.0
381.215,2274.0
382.563,2264.0
383.91,2322.0
385.258,2320.0
386.605,2348.0
387.952,2335.0
389.299,2355.0
390.646,2342.826
391.992,2340.0
393.339,2315.0
394.685,2332.0
396.031,2319.0
397.376,2349.0
398.722,2356.0
400.067,2382.0
401.412,2382.0
402.757,2395.0
404.101,2337.0
405.446,2397.0
406.79,2374.0
408.134,2315.0
409.478,2379.0
410.821,2348.0
412.165,2421.0
413.508,2427.0
414.851,2420.0
416.193,2447.0
417.536,2426.0
418.878,2342.0
420.22,2425.0
421.562,2407.0
422.904,2461.0
424.245,2389.0
425.586,2409.0
426.927,2490.0
428.268,2424.0
429.609,2475.0
430.949,2459.0
432.289,2428.0
433.629,2496.0
434.969,2532.0
436.309,2490.0
437.648,2543.0
438.987,2484.0
440.326,2514.0
441.665,2523.0
443.003,2486.0
444.342,2478.0
445.68,2524.0
447.018,2553.0
448.355,2538.0
449.693,2570.0
451.03,2483.0
452.367,2520.0
453.704,2519.0
455.041,2579.0
456.377,2511.0
457.713,2536.0
459.049,2563.0
460.385,2529.0
461.721,2560.0
463.056,2596.0
464.391,2631.0
465.726,2638.002
467.061,2643.652
468.395,2636.0
469.73,2630.0
471.064,2604.0
472.398,2604.0
473.731,2565.0
475.065,2595.436
476.398,2573.0
477.731,2637.0
479.064,2658.0
480.397,2645.0
481.729,2655.0
483.062,2668.0
484.394,2666.0
485.725,2639.0
487.057,2644.0
488.389,2654.0
489.72,2702.0
491.051,2689.0
492.382,2699.0
493.712,2681.0
495.043,2688.843
496.373,2691.0
497.703,2704.0
499.032,2707.0
500.362,2726.0
501.691,2761.0
503.02,2707.0
504.349,2789.0
505.678,2717.0
507.007,2770.0
508.335,2732.0
509.663,2746.0
510.991,2740.0
512.319,2736.359
513.646,2786.0
514.973,2750.0
516.3,2770.0
517.627,2790.0
518.954,2836.0
520.28,2847.0
521.607,2812.0
522.933,2880.0
524.259,2866.0
525.584,2817.0
526.91,2828.0
528.235,2814.0
529.56,2820.905
530.885,2861.0
532.209,2851.0
533.534,2855.0
534.858,2860.0
536.182,2903.0
537.506,2906.0
538.829,2886.0
540.152,2862.0
541.476,2896.0
542.799,2930.0
544.121,2911.0
545.444,2935.835
546.766,2921.0
548.088,2946.0
549.41,2921.0
550.732,2928.0
552.053,2987.0
553.375,2900.0
554.696,2964.0
556.017,2925.0
557.337,2960.0
558.658,2955.0
559.978,2988.0
561.298,2991.0
562.618,2966.0
563.938,3018.0
565.257,2995.0
566.576,3047.0
567.895,3026.0
569.214,3022.0
570.533,3044.0
571.851,3105.0
573.17,3067.0
574.488,3014.0
575.805,3081.0
577.123,3049.0
578.44,3128.0
579.758,3036.0
581.075,3088.0
582.391,3098.0
583.708,3092.0
585.024,3146.0
586.341,3138.463
587.657,3157.166
588.972,3147.0
590.288,3163.0
591.603,3147.0
592.918,3111.0
594.233,3175.0
595.548,3103.0
596.863,3150.0
598.177,3210.0
599.491,3141.0
600.805,3220.0
602.119,3186.0
603.432,3205.0
604.746,3212.0
606.059,3228.0
607.372,3260.0
608.685,3217.0
609.997,3211.0
611.309,3251.0
612.621,3295.0
613.933,3216.0
615.245,3292.0
616.557,3264.0
617.868,3248.0
619.179,3291.0
620.49,3294.0
621.801,3281.0
623.111,3315.0
624.421,3321.0
625.731,3360.0
627.041,3345.0
628.351,3301.0
629.66,3383.0
630.97,3316.0
632.279,3312.0
633.588,3377.0
634.896,3340.0
636.205,3388.0
637.513,3333.0
638.821,3474.0
640.129,3363.0
641.437,3392.0
642.744,3442.0
644.051,3421.0
645.358,3415.0
646.665,3374.0
647.972,3466.0
649.278,3454.0
650.584,3484.0
651.89,3447.0
653.196,3472.0
654.502,3505.0
655.807,3476.0
657.113,3492.0
658.418,3470.0
659.722,3498.0
661.027,3564.0
662.331,3463.0
663.636,3491.0
664.94,3574.0
666.244,3520.0
667.547,3478.0
668.851,3547.0
670.154,3474.0
671.457,3601.0
672.76,3577.0
674.062,3539.0
675.365,3617.0
676.667,3613.0
677.969,3602.0
679.271,3574.0
680.572,3598.0
681.874,3643.0
683.175,3629.0
684.476,3663.0
685.777,3662.0
687.077,3646.0
688.378,3660.0
689.678,3623.0
690.978,3712.0
692.278,3706.0
693.577,3788.0
694.877,3651.0
696.176,3812.0
697.475,3807.0
698.774,3808.0
700.072,3908.0
701.371,3922.0
702.669,3824.0
703.967,3893.0
705.265,3827.0
706.562,3950.0
707.86,3959.0
709.157,3996.0
710.454,3970.0
711.751,4108.0
713.047,4110.0
714.344,4201.0
715.64,4224.0
716.936,4360.0
718.232,4367.0
719.527,4625.0
720.823,4945.0
722.118,5142.0
723.413,5317.0
724.708,5458.0
726.002,5448.0
727.297,5345.0
728.591,5104.0
729.885,4803.0
731.179,4596.0
732.472,4436.0
733.766,4292.0
735.059,4199.113
736.352,4149.0
737.645,4093.0
738.937,4093.0
740.23,4087.0
741.522,4130.0
742.814,4113.895
744.106,4110.854
745.397,4100.0
746.689,4079.0
747.98,4046.0
749.271,4022.0
750.562,4033.0
751.853,4032.0
753.143,4144.0
754.433,4089.0
755.723,4150.0
757.013,4132.0
758.303,4131.0
759.592,4131.0
760.881,4119.807
762.17,4132.0
763.459,4117.0
764.748,4120.0
766.036,4141.0
767.325,4074.0
768.613,4105.305
769.901,4189.0
771.188,4128.0
772.476,4157.0
773.763,4193.0
775.05,4253.0
776.337,4179.0
777.624,4242.0
778.91,4265.0
780.196,4208.0
781.482,4265.0
782.768,4286.0
784.054,4265.0
785.339,4280.0
786.625,4290.939
787.91,4344.0
789.195,4316.0
790.479,4331.0
791.764,4336.0
793.048,4313.0
794.332,4350.0
795.616,4376.0
796.9,4307.0
798.183,4381.0
799.467,4400.0
800.75,4339.0
802.033,4377.0
803.316,4389.0
804.598,4321.0
805.88,4493.0
807.163,4350.0
808.445,4476.0
809.726,4462.0
811.008,4444.0
812.289,4441.0
813.57,4499.0
814.851,4418.0
816.132,4515.0
817.413,4485.0
818.693,4539.0
819.973,4505.0
821.253,4494.0
822.533,4550.0
823.813,4582.0
825.092,4580.0
826.371,4548.0
827.65,4611.0
828.929,4632.0
830.208,4570.0
831.486,4646.0
832.764,4665.0
834.042,4622.0
835.32,4679.0
836.598,4700.0
837.875,4710.0
839.152,4660.0
840.429,4646.0
841.706,4698.0
842.983,4800.0
844.259,4688.0
845.536,4698.0
846.812,4789.0
848.088,4760.0
849.363,4727.0
850.639,4721.0
851.914,4724.825
853.189,4733.832
854.464,4763.0
855.739,4787.0
857.013,4815.0
858.288,4855.0
859.562,4863.333
860.836,4766.0
862.11,4860.0
863.383,4890.0
864.656,4833.0
865.93,4926.0
867.203,4886.0
868.475,4880.0
869.748,4988.0
871.02,4876.0
872.292,4949.0
873.564,4986.0
874.836,4969.0
876.108,4984.0
877.379,4985.0
878.65,5068.0
879.922,5223.0
881.192,5269.0
882.463,5348.0
883.733,5171.0
885.004,5107.0
886.274,5097.0
887.544,5054.0
888.813,5064.0
890.083,5072.286
891.352,5133.0
892.621,5120.0
893.89,5145.0
895.159,5171.0
896.427,5174.0
897.695,5200.104
898.964,5191.366
900.232,5230.0
901.499,5187.0
902.767,5184.0
904.034,5213.0
905.301,5239.0
906.568,5249.034
907.835,5251.0
909.102,5278.0
910.368,5283.489
911.634,5248.0
912.9,5307.0
914.166,5337.0
915.432,5347.0
916.697,5407.0
917.962,5405.333
919.227,5421.01
920.492,5412.0
921.757,5416.0
923.021,5396.0
924.285,5364.0
925.55,5410.0
926.813,5464.0
928.077,5455.0
929.341,5393.0
930.604,5440.0
931.867,5428.0
933.13,5557.0
934.393,5499.0
935.655,5504.0
936.918,5528.0
938.18,5516.0
939.442,5636.0
940.703,5475.0
941.965,5564.0
943.226,5623.0
944.488,5556.0
945.749,5550.0
947.009,5561.0
948.27,5604.0
949.53,5626.0
950.791,5618.0
952.051,5609.0
953.311,5638.757
954.57,5602.0
955.83,5696.0
957.089,5688.0
958.348,5733.0
959.607,5722.0
960.866,5687.0
962.124,5805.0
963.383,5719.0
964.641,5771.0
965.899,5770.0
967.156,5839.0
968.414,5780.0
969.671,5795.0
970.928,5733.0
972.185,5872.0
973.442,5781.0
974.699,5900.0
975.955,5860.0
977.211,5971.0
978.468,5873.0
979.723,5891.0
980.979,5932.0
982.234,5942.0
983.49,5960.0
984.745,6083.0
986.0,5932.0
987.254,6027.0
988.509,6069.0
989.763,5952.0
991.017,6041.0
992.271,6011.0
993.525,6032.0
994.779,6094.0
996.032,6027.0
997.285,6099.0
998.538,6122.0
999.791,6146.0
1001.044,6178.649
1002.296,6196.78
1003.548,6196.0
1004.8,6224.0
1006.052,6194.0
1007.304,6172.0
1008.555,6220.0
1009.807,6249.0
1011.058,6354.0
1012.309,6544.0
1013.559,6403.0
1014.81,6421.0
1016.06,6398.0
1017.31,6275.0
1018.56,6345.0
1019.81,6372.0
1021.06,6428.0
1022.309,6385.0
1023.558,6486.0
1024.807,6442.0
1026.056,6511.0
1027.305,6505.0
1028.553,6610.0
1029.801,6466.0
1031.049,6658.0
1032.297,6580.0
1033.545,6528.0
1034.793,6574.0
1036.04,6623.0
1037.287,6640.0
1038.534,6688.695
1039.781,6684.0
1041.027,6722.0
1042.274,6795.0
1043.52,6724.0
1044.766,6713.0
1046.012,6764.0
1047.257,6804.0
1048.503,6823.0
1049.748,6830.0
1050.993,6886.0
1052.238,6867.0
1053.483,6909.11
1054.727,6935.166
1055.971,6969.0
1057.216,6996.0
1058.459,7030.13
1059.703,7065.437
1060.947,7139.0
1062.19,7213.0
1063.433,7274.0
1064.676,7404.0
1065.919,7466.0
1067.162,7560.0
1068.404,7529.0
1069.646,7790.0
1070.888,7793.0
1072.13,7961.0
1073.372,8250.0
1074.613,8365.0
1075.855,8586.0
1077.096,8741.0
1078.337,8938.0
1079.578,8935.0
1080.818,9258.0
1082.059,9361.0
1083.299,9612.0
1084.539,9748.0
1085.779,10304.0
1087.018,10526.0
1088.258,11205.0
1089.497,11880.0
1090.736,12918.0
1091.975,14378.0
1093.213,16793.0
1094.452,20709.0
1095.69,27664.0
1096.928,37556.0
1098.166,47584.0
1099.404,52554.0
1100.642,45482.0
1101.879,32544.0
1103.116,22610.0
1104.353,16930.0
1105.59,13582.0
1106.827,11600.0
1108.063,10338.0
1109.299,9593.0
1110.536,9058.0
1111.771,8724.0
1113.007,8375.0
1114.243,8283.0
1115.478,8101.0
1116.713,7983.0
1117.948,7868.0
1119.183,7784.105
1120.418,7822.0
1121.652,7722.0
1122.886,7740.0
1124.12,7704.971
1125.354,7686.0
1126.588,7655.0
1127.821,7618.0
1129.055,7610.0
1130.288,7597.837
1131.521,7678.0
1132.753,7584.0
1133.986,7611.0
1135.218,7578.0
1136.45,7474.0
1137.682,7688.0
1138.914,7578.0
1140.146,7574.0
1141.377,7576.0
1142.609,7512.0
1143.84,7588.0
1145.071,7548.0
1146.301,7593.0
1147.532,7662.0
1148.762,7646.0
1149.992,7644.0
1151.222,7643.0
1152.452,7596.0
1153.682,7689.0
1154.911,7826.0
1156.14,7736.0
1157.369,7747.0
1158.598,7701.0
1159.827,7795.0
1161.055,7751.0
1162.284,7798.0
1163.512,7759.0
1164.74,7820.0
1165.967,7788.0
1167.195,7875.0
1168.422,7880.159
1169.65,7886.0
1170.877,7905.0
1172.103,7862.0
1173.33,7824.0
1174.557,7888.0
1175.783,7940.0
1177.009,7982.0
1178.235,7955.0
1179.461,7843.0
1180.686,8025.0
1181.912,7958.0
1183.137,7970.0
1184.362,8103.0
1185.587,8020.0
1186.811,8023.0
1188.036,8095.0
1189.26,8129.0
1190.484,8037.0
1191.708,8101.0
1192.932,8124.0
1194.155,8178.0
1195.378,8143.0
1196.602,8256.0
1197.825,8166.0
1199.047,8210.0
1200.27,8161.0
1201.492,8253.0
1202.715,8219.0
1203.937,8290.0
1205.159,8227.0
1206.38,8341.0
1207.602,8309.0
1208.823,8366.0
1210.044,8381.767
1211.265,8322.0
1212.486,8389.0
1213.707,8406.0
1214.927,8400.0
1216.147,8342.0
1217.367,8482.0
1218.587,8459.0
1219.807,8407.0
1221.027,8448.0
1222.246,8392.0
1223.465,8563.0
1224.684,8464.0
1225.903,8494.0
1227.121,8579.0
1228.34,8560.0
1229.558,8537.0
1230.776,8554.0
1231.994,8526.242
1233.212,8491.0
1234.429,8517.0
1235.646,8628.0
1236.864,8678.0
1238.081,8610.0
1239.297,8737.0
1240.514,8736.0
1241.73,8716.0
1242.947,8780.0
1244.163,8764.0
1245.378,8740.0
1246.594,8907.0
1247.81,8813.0
1249.025,8892.0
1250.24,8760.0
1251.455,8915.0
1252.67,8734.0
1253.885,8831.812
1255.099,9007.0
1256.313,8920.0
1257.527,8972.0
1258.741,8939.0
1259.955,8949.0
1261.168,8960.0
1262.382,8902.0
1263.595,8981.0
1264.808,8985.0
1266.021,9061.0
1267.233,9016.0
1268.446,9024.0
1269.658,9058.0
1270.87,9097.0
1272.082,9054.0
1273.294,9102.0
1274.505,9180.0
1275.716,9124.0
1276.928,9091.0
1278.139,9220.0
1279.349,9152.0
1280.56,9368.0
1281.77,9299.0
1282.981,9274.0
1284.191,9246.0
1285.401,9310.0
1286.61,9251.0
1287.82,9338.0
1289.029,9337.0
1290.239,9329.0
1291.448,9300.0
1292.656,9433.0
1293.865,9452.0
1295.073,9412.0
1296.282,9532.0
1297.49,9434.0
1298.698,9527.0
1299.906,9472.0
1301.113,9468.0
1302.32,9590.0
1303.528,9492.0
1304.735,9586.0
1305.942,9564.0
1307.148,9526.0
1308.355,9702.0
1309.561,9682.0
1310.767,9650.0
1311.973,9666.0
1313.179,9657.0
1314.384,9661.705
1315.59,9666.0
1316.795,9691.23
1318.0,9706.489
1319.205,9742.0
1320.41,9729.0
1321.614,9843.0
1322.819,9845.0
1324.023,9840.0
1325.227,9929.0
1326.431,9945.0
1327.634,9997.0
1328.838,9938.0
1330.041,9900.0
1331.244,10025.0
1332.447,9985.0
1333.65,10135.0
1334.852,10122.0
1336.055,10116.0
1337.257,10116.0
1338.459,10123.0
1339.661,10144.0
1340.862,10149.276
1342.064,10155.71
1343.265,10176.104
1344.466,10224.0
1345.667,10244.0
1346.868,10278.0
1348.068,10290.0
1349.269,10423.0
1350.469,10473.0
1351.669,10308.0
1352.869,10442.0
1354.069,10465.0
1355.268,10569.0
1356.468,10545.0
1357.667,10503.0
1358.866,10525.0
1360.065,10622.0
1361.263,10684.0
1362.462,10644.0
1363.66,10624.0
1364.858,10589.0
1366.056,10722.0
1367.254,10645.0
1368.451,10759.0
1369.649,10809.0
1370.846,10849.0
1372.043,10688.0
1373.24,10836.0
1374.436,10789.0
1375.633,10814.0
1376.829,10866.0
1378.025,10801.0
1379.221,10878.0
1380.417,10934.0
1381.613,10910.0
1382.808,10961.0
1384.003,11008.0
1385.199,10926.0
1386.393,10988.0
1387.588,10993.0
1388.783,10990.0
1389.977,11061.768
1391.171,11110.0
1392.365,11176.0
1393.559,11184.0
1394.753,11232.0
1395.946,11348.0
1397.14,11226.0
1398.333,11228.0
1399.526,11276.0
1400.719,11436.0
1401.911,11264.0
1403.104,11392.0
1404.296,11348.0
1405.488,11482.0
1406.68,11393.0
1407.872,11509.0
1409.063,11518.0
1410.255,11522.0
1411.446,11584.0
1412.637,11505.0
1413.828,11569.0
1415.018,11521.0
1416.209,11654.0
1417.399,11665.0
1418.589,11665.0
1419.779,11671.0
1420.969,11701.675
1422.159,11708.0
1423.348,11762.0
1424.537,11836.0
1425.726,11857.0
1426.915,11919.0
1428.104,11863.0
1429.293,11920.0
1430.481,11964.0
1431.669,12040.0
1432.857,11986.0
1434.045,12062.0
1435.233,12206.0
1436.42,12262.0
1437.608,12456.0
1438.795,12409.0
1439.982,12513.0
1441.169,12674.0
1442.355,13132.0
1443.542,13297.0
1444.728,13507.0
1445.914,13502.0
1447.1,13102.0
1448.286,12930.0
1449.472,12678.0
1450.657,12778.0
1451.842,12536.0
1453.027,12668.0
1454.212,12560.0
1455.397,12471.0
1456.581,12600.0
1457.766,12528.0
1458.95,12594.0
1460.134,12609.0
1461.318,12498.0
1462.501,12665.0
1463.685,12532.0
1464.868,12512.0
1466.051,12721.0
1467.234,12539.0
1468.417,12841.0
1469.6,12667.0
1470.782,12688.0
1471.965,12834.0
1473.147,12800.0
1474.329,12724.0
1475.51,12800.0
1476.692,12806.0
1477.873,12736.0
1479.055,12830.0
1480.236,12913.0
1481.416,12836.0
1482.597,13041.0
1483.778,12831.0
1484.958,12966.0
1486.138,12982.0
1487.318,12896.0
1488.498,12859.0
1489.678,12887.997
1490.857,13014.0
1492.037,12968.0
1493.216,13034.0
1494.395,13130.0
1495.574,13132.0
1496.752,13076.0
1497.931,13149.0
1499.109,13016.0
1500.287,13174.0
1501.465,12952.0
1502.643,13132.0
1503.82,13152.0
1504.998,13061.0
1506.175,13251.0
1507.352,13259.0
1508.529,13295.0
1509.706,13196.0
1510.882,13290.0
1512.059,13156.0
1513.235,13308.0
1514.411,13396.0
1515.587,13408.0
1516.762,13473.082
1517.938,13525.0
1519.113,13492.0
1520.288,13487.0
1521.463,13481.0
1522.638,13571.0
1523.813,13568.0
1524.987,13579.0
1526.162,13650.0
