Raman Shift,Intensity 
400,2.364379181
401,2.410246436
402,2.388919025
403,2.347680298
404,2.402621922
405,2.425137255
406,2.3709037
407,2.418290426
408,2.396965677
409,2.412059918
410,2.413812542
411,2.377803579
412,2.404136751
413,2.380838578
414,2.395863475
415,2.398483907
416,2.413695115
417,2.380756862
418,2.423973798
419,2.371304745
420,2.408620174
421,2.420919042
422,2.420387507
423,2.4014747
424,2.394083613
425,2.391904211
426,2.403066029
427,2.392146007
428,2.394827793
429,2.392446963
430,2.40643436
431,2.411644342
432,2.416798238
433,2.405092377
434,2.419139654
435,2.393559906
436,2.390379664
437,2.427649586
438,2.401187574
439,2.434364918
440,2.441092425
441,2.450631412
442,2.462180532
443,2.45486075
444,2.458413521
445,2.489037507
446,2.507503501
447,2.513441672
448,2.516056481
449,2.524730406
450,2.547063969
451,2.557084416
452,2.607290986
453,2.590784227
454,2.614464322
455,2.613520382
456,2.57637398
457,2.60015628
458,2.614863172
459,2.602424752
460,2.599997055
461,2.56690263
462,2.568003667
463,2.573771324
464,2.575387661
465,2.562681634
466,2.564792342
467,2.528073921
468,2.544690525
469,2.516479661
470,2.524568713
471,2.47323191
472,2.492344721
473,2.464089991
474,2.465545144
475,2.449101088
476,2.448690645
477,2.429917544
478,2.404225774
479,2.425553668
480,2.403841722
481,2.388905242
482,2.416640458
483,2.434707073
484,2.403958537
485,2.399549064
486,2.358539476
487,2.424030204
488,2.411435582
489,2.416480518
490,2.392342645
491,2.409708611
492,2.3958661
493,2.401459839
494,2.407229984
495,2.388314629
496,2.392422114
497,2.400280468
498,2.381649581
499,2.402383226
500,2.381486318
501,2.400820218
502,2.391285202
503,2.400010492
504,2.383652066
505,2.394804852
506,2.391752206
507,2.393312769
508,2.392718691
509,2.415952657
510,2.404103844
511,2.374226609
512,2.36974782
513,2.40651679
514,2.392274846
515,2.386740193
516,2.410485487
517,2.40338903
518,2.438309878
519,2.375781074
520,2.393849375
521,2.403183867
522,2.402255626
523,2.387045206
524,2.414718265
525,2.405514755
526,2.38589525
527,2.39348638
528,2.401322833
529,2.397034595
530,2.396360195
531,2.388152157
532,2.392081293
533,2.399071543
534,2.399427439
535,2.401731761
536,2.397429415
537,2.40631614
538,2.410322901
539,2.400421512
540,2.368508991
541,2.404873096
542,2.404527206
543,2.383375869
544,2.424530779
545,2.397060431
546,2.396496513
547,2.431649199
548,2.398722577
549,2.415093796
550,2.382370798
551,2.396231559
552,2.407920248
553,2.413661854
554,2.413371085
555,2.396891337
556,2.407626245
557,2.383856739
558,2.405834136
559,2.397032301
560,2.374049419
561,2.400001596
562,2.387401606
563,2.409380862
564,2.40825656
565,2.381286678
566,2.387758652
567,2.381141352
568,2.414452085
569,2.39166202
570,2.395561895
571,2.40425389
572,2.375110705
573,2.375818688
574,2.392538125
575,2.403713522
576,2.402224562
577,2.389867915
578,2.37630142
579,2.366337955
580,2.399815082
581,2.371878875
582,2.413705793
583,2.361403158
584,2.379463624
585,2.369857564
586,2.396537147
587,2.412941965
588,2.38697827
589,2.390770667
590,2.389903781
591,2.42416462
592,2.397821862
593,2.400646062
594,2.378288167
595,2.415888845
596,2.413597892
597,2.36202471
598,2.389815406
599,2.40125499
600,2.377863756
601,2.400495837
602,2.393729135
603,2.401170347
604,2.412643253
605,2.376454195
606,2.374765423
607,2.403656385
608,2.421237315
609,2.400960243
610,2.403553864
611,2.407012298
612,2.395694277
613,2.415263152
614,2.433060255
615,2.388384603
616,2.417888775
617,2.385599646
618,2.405830667
619,2.405769527
620,2.375879958
621,2.40472861
622,2.390333076
623,2.378365429
624,2.429583283
625,2.387961737
626,2.400198868
627,2.401364475
628,2.412120667
629,2.387749261
630,2.374698155
631,2.389558007
632,2.375020845
633,2.391491475
634,2.387656236
635,2.392045189
636,2.427325044
637,2.406605895
638,2.385222122
639,2.389732314
640,2.375731583
641,2.376750977
642,2.415780788
643,2.403690189
644,2.373413244
645,2.383608051
646,2.412405074
647,2.406422768
648,2.414296215
649,2.397958799
650,2.408417755
651,2.400111182
652,2.402521272
653,2.401065434
654,2.381917299
655,2.398235036
656,2.398730818
657,2.408627863
658,2.416130803
659,2.36459862
660,2.385898565
661,2.379968793
662,2.376251942
663,2.386749107
664,2.385944801
665,2.389330915
666,2.405922982
667,2.390853264
668,2.393745164
669,2.409800272
670,2.388267424
671,2.411636845
672,2.386075797
673,2.387513128
674,2.406225514
675,2.410029515
676,2.397522993
677,2.4297069
678,2.393331875
679,2.39204097
680,2.403556861
681,2.410011109
682,2.384278974
683,2.405763324
684,2.408164354
685,2.405807535
686,2.393357861
687,2.419903738
688,2.400393472
689,2.412491597
690,2.387731756
691,2.380739737
692,2.371927332
693,2.398222549
694,2.395602308
695,2.390980929
696,2.389459561
697,2.397696381
698,2.415255544
699,2.416970592
700,2.407124271
701,2.363006883
702,2.409040989
703,2.410379871
704,2.382728269
705,2.417226212
706,2.392135709
707,2.414668118
708,2.395482353
709,2.414946644
710,2.399630439
711,2.416025732
712,2.36364659
713,2.416347644
714,2.389245061
715,2.405977607
716,2.385252565
717,2.396335176
718,2.392545048
719,2.392368917
720,2.401828265
721,2.383889934
722,2.38317094
723,2.410260777
724,2.411660522
725,2.401422304
726,2.401271496
727,2.404815444
728,2.405555528
729,2.396671765
730,2.412274828
731,2.372055041
732,2.424842133
733,2.424380533
734,2.399663753
735,2.358518479
736,2.395929266
737,2.403779611
738,2.37977652
739,2.394778449
740,2.420981956
741,2.406765813
742,2.411358219
743,2.416986526
744,2.389630812
745,2.364634656
746,2.349138895
747,2.386641737
748,2.401493128
749,2.398345034
750,2.404109285
751,2.407248571
752,2.40646286
753,2.416542193
754,2.398006364
755,2.418118742
756,2.384347946
757,2.421368381
758,2.404186243
759,2.401549055
760,2.402904113
761,2.383241564
762,2.400386687
763,2.411535502
764,2.412479732
765,2.430378152
766,2.364407825
767,2.386667019
768,2.407777403
769,2.403201643
770,2.391167049
771,2.379896897
772,2.402828737
773,2.390182984
774,2.417885254
775,2.386624489
776,2.407477776
777,2.399461861
778,2.378283286
779,2.374630215
780,2.381930278
781,2.39399289
782,2.41319252
783,2.368633979
784,2.414707706
785,2.397894572
786,2.438717693
787,2.387414181
788,2.398529654
789,2.377876394
790,2.391844398
791,2.396181818
792,2.385780232
793,2.399196114
794,2.412232513
795,2.423414576
796,2.384264352
797,2.409521109
798,2.398355384
799,2.402060921
800,2.401471374
801,2.411932701
802,2.410037756
803,2.408999394
804,2.420074062
805,2.382653143
806,2.417100169
807,2.381585775
808,2.424425235
809,2.384714401
810,2.409490179
811,2.391252114
812,2.366209781
813,2.399221745
814,2.400951906
815,2.386903516
816,2.372775863
817,2.404405762
818,2.413041441
819,2.404285055
820,2.386931613
821,2.411737488
822,2.370581625
823,2.394822706
824,2.411421894
825,2.397138563
826,2.391746256
827,2.390328476
828,2.403309347
829,2.420537489
830,2.40429673
831,2.398594766
832,2.38686034
833,2.422137224
834,2.413155022
835,2.395534971
836,2.395467629
837,2.438519343
838,2.406487878
839,2.394148476
840,2.393433111
841,2.386066045
842,2.435714212
843,2.423279873
844,2.417291689
845,2.386960972
846,2.405536174
847,2.39351595
848,2.439495037
849,2.390743445
850,2.451356715
851,2.407579602
852,2.381204365
853,2.405184409
854,2.420341995
855,2.401647512
856,2.404342099
857,2.403503368
858,2.389779164
859,2.399571525
860,2.4112936
861,2.387281735
862,2.384496981
863,2.41666643
864,2.400152697
865,2.385345919
866,2.397251742
867,2.426113218
868,2.386737
869,2.390047863
870,2.405467594
871,2.424468988
872,2.380660205
873,2.401241161
874,2.397602348
875,2.36583512
876,2.400469038
877,2.412834103
878,2.424295538
879,2.415139635
880,2.369364667
881,2.404494724
882,2.407019621
883,2.430952717
884,2.402125387
885,2.387927922
886,2.374564196
887,2.403549876
888,2.383810312
889,2.414443992
890,2.390293348
891,2.403863504
892,2.403539262
893,2.389313796
894,2.406473022
895,2.409329369
896,2.388887965
897,2.397550852
898,2.377695117
899,2.378215825
900,2.402964002
901,2.415757436
902,2.417215202
903,2.422611931
904,2.39510008
905,2.409334574
906,2.430692539
907,2.415909296
908,2.406922291
909,2.410031461
910,2.427001691
911,2.396333265
912,2.385811837
913,2.379867591
914,2.410827373
915,2.390816118
916,2.387915449
917,2.404095941
918,2.405970358
919,2.423727457
920,2.426633367
921,2.402269403
922,2.387462061
923,2.386965283
924,2.401251169
925,2.394018716
926,2.39140003
927,2.386864378
928,2.444535997
929,2.420399658
930,2.412152554
931,2.405462793
932,2.38397121
933,2.386203468
934,2.417104477
935,2.376051914
936,2.419132726
937,2.398643185
938,2.386664978
939,2.382445211
940,2.396105535
941,2.424370307
942,2.390798536
943,2.399353734
944,2.413678014
945,2.38585324
946,2.398230694
947,2.40689324
948,2.417733325
949,2.416348557
950,2.425981298
951,2.451127693
952,2.424709145
953,2.456008813
954,2.410071119
955,2.479973897
956,2.458435142
957,2.48051883
958,2.472710896
959,2.49752634
960,2.543816866
961,2.536300756
962,2.555514354
963,2.606188521
964,2.636655998
965,2.655947326
966,2.728692646
967,2.736145115
968,2.804231434
969,2.836708469
970,2.915476508
971,2.939585759
972,3.025549915
973,3.055844331
974,3.083387474
975,3.131094606
976,3.194186904
977,3.243372548
978,3.268713565
979,3.326512264
980,3.317088125
981,3.366945521
982,3.386393005
983,3.391453314
984,3.400085488
985,3.390111229
986,3.387799103
987,3.363313996
988,3.339227013
989,3.308338999
990,3.320993921
991,3.236248156
992,3.207733104
993,3.163811571
994,3.111766236
995,3.077777843
996,3.004928066
997,2.946109406
998,2.909598413
999,2.828264162
1000,2.822098037
1001,2.773676177
1002,2.707518831
1003,2.700079805
1004,2.666677646
1005,2.629871753
1006,2.622840066
1007,2.533069548
1008,2.535705891
1009,2.517820348
1010,2.498853071
1011,2.486723879
1012,2.466924632
1013,2.461376889
1014,2.442225953
1015,2.437729421
1016,2.441199263
1017,2.438445101
1018,2.413046691
1019,2.410673308
1020,2.40432196
1021,2.418473422
1022,2.39799579
1023,2.420868271
1024,2.389081587
1025,2.42301906
1026,2.432175188
1027,2.380496898
1028,2.411750713
1029,2.402371227
1030,2.400448593
1031,2.421183138
1032,2.428869436
1033,2.402340954
1034,2.410568809
1035,2.406429221
1036,2.405298444
1037,2.391735116
1038,2.389597497
1039,2.392441676
1040,2.421226179
1041,2.41574137
1042,2.397462596
1043,2.39498157
1044,2.427413046
1045,2.41775215
1046,2.39408995
1047,2.415977638
1048,2.418154452
1049,2.392740032
1050,2.403414002
1051,2.391058293
1052,2.413982784
1053,2.391972743
1054,2.397264806
1055,2.401107324
1056,2.381959538
1057,2.422201784
1058,2.38501972
1059,2.377786984
1060,2.402349785
1061,2.399672911
1062,2.403472353
1063,2.419938621
1064,2.404370882
1065,2.410012293
1066,2.41858752
1067,2.379346979
1068,2.422499252
1069,2.38485634
1070,2.406900212
1071,2.419552422
1072,2.399258595
1073,2.408498636
1074,2.385031967
1075,2.41580275
1076,2.39239842
1077,2.402899722
1078,2.423998214
1079,2.385657443
1080,2.432070777
1081,2.412395328
1082,2.420293722
1083,2.42273891
1084,2.394883614
1085,2.421746084
1086,2.407577554
1087,2.423081819
1088,2.430222158
1089,2.406584539
1090,2.429509848
1091,2.410176043
1092,2.417346132
1093,2.412289044
1094,2.413045725
1095,2.436112816
1096,2.420953005
1097,2.441251265
1098,2.433177438
1099,2.448004679
1100,2.420033745
1101,2.458915723
1102,2.454272948
1103,2.474947008
1104,2.478951366
1105,2.468437601
1106,2.485459189
1107,2.477495131
1108,2.508200652
1109,2.512313121
1110,2.512501586
1111,2.539170428
1112,2.557342267
1113,2.573064256
1114,2.532084907
1115,2.562137301
1116,2.586919335
1117,2.592217774
1118,2.646685366
1119,2.623742796
1120,2.640275003
1121,2.651218454
1122,2.653409847
1123,2.676928766
1124,2.727277067
1125,2.722448685
1126,2.707031067
1127,2.727986556
1128,2.733224702
1129,2.757214173
1130,2.772376737
1131,2.770182312
1132,2.766390783
1133,2.795624788
1134,2.793210381
1135,2.781008696
1136,2.807666712
1137,2.778848722
1138,2.794718924
1139,2.834825567
1140,2.794978262
1141,2.795014093
1142,2.77654804
1143,2.781796674
1144,2.785334894
1145,2.775167559
1146,2.79008824
1147,2.737068936
1148,2.749633246
1149,2.713256353
1150,2.745872073
1151,2.697662504
1152,2.692322552
1153,2.68338852
1154,2.683597983
1155,2.653832705
1156,2.692832499
1157,2.607688746
1158,2.59626457
1159,2.587805753
1160,2.590073081
1161,2.568343449
1162,2.543600115
1163,2.533565966
1164,2.540717784
1165,2.533290252
1166,2.533982334
1167,2.493376519
1168,2.508029759
1169,2.484668375
1170,2.500871675
1171,2.477573739
1172,2.482554707
1173,2.450482221
1174,2.472486962
1175,2.444855683
1176,2.432726703
1177,2.434949153
1178,2.415631504
1179,2.40834947
1180,2.440605234
1181,2.436178823
1182,2.431451961
1183,2.40550853
1184,2.428173906
1185,2.417853731
1186,2.406027899
1187,2.410347799
1188,2.370879374
1189,2.39711991
1190,2.402601539
1191,2.397373818
1192,2.394075818
1193,2.3920516
1194,2.386510592
1195,2.408584045
1196,2.401322197
1197,2.42810154
1198,2.400075924
1199,2.421469831
1200,2.406078643
1201,2.403265055
1202,2.409202827
1203,2.425118832
1204,2.402294084
1205,2.414258146
1206,2.402158057
1207,2.405947103
1208,2.395272607
1209,2.382139227
1210,2.400583773
1211,2.40018904
1212,2.40355855
1213,2.383354932
1214,2.379281471
1215,2.38962279
1216,2.414188498
1217,2.37521831
1218,2.418004724
1219,2.390764228
1220,2.39068136
1221,2.391972896
1222,2.405696783
1223,2.388465615
1224,2.389485483
1225,2.408012771
1226,2.40883227
1227,2.397142933
1228,2.377948111
1229,2.40091176
1230,2.395894413
1231,2.39948535
1232,2.404204949
1233,2.397251339
1234,2.427467306
1235,2.39357386
1236,2.417790891
1237,2.419578159
1238,2.405321017
1239,2.367876119
1240,2.421138447
1241,2.419951368
1242,2.395399026
1243,2.366776223
1244,2.386282732
1245,2.420371555
1246,2.395725584
1247,2.376100263
1248,2.407776472
1249,2.388890601
1250,2.375857088
1251,2.3987414
1252,2.403426501
1253,2.379714898
1254,2.405070991
1255,2.40610294
1256,2.379767056
1257,2.385637625
1258,2.396858737
1259,2.412150919
1260,2.408379302
1261,2.38599436
1262,2.391141733
1263,2.391646108
1264,2.405496438
1265,2.392764645
1266,2.390343736
1267,2.435356211
1268,2.420976599
1269,2.382991557
1270,2.375624128
1271,2.402899587
1272,2.38763876
1273,2.389662593
1274,2.419917623
1275,2.410357308
1276,2.392740337
1277,2.380301411
1278,2.388371881
1279,2.384549701
1280,2.388652528
1281,2.416225668
1282,2.381753442
1283,2.405569392
1284,2.413943554
1285,2.384558344
1286,2.378410678
1287,2.381644458
1288,2.395345619
1289,2.404190924
1290,2.377620458
1291,2.370410252
1292,2.401690247
1293,2.393576656
1294,2.391086229
1295,2.39053602
1296,2.407707278
1297,2.417260047
1298,2.400215895
1299,2.376854839
1300,2.388002926
1301,2.410881731
1302,2.403376777
1303,2.378827053
1304,2.408367598
1305,2.406054207
1306,2.386683367
1307,2.399117382
1308,2.409908401
1309,2.365659046
1310,2.382450562
1311,2.424235412
1312,2.418854857
1313,2.387174991
1314,2.423924511
1315,2.376046633
1316,2.411574789
1317,2.430391558
1318,2.406697352
1319,2.388193665
1320,2.388697058
1321,2.374355206
1322,2.420097334
1323,2.389639245
1324,2.415582822
1325,2.411087759
1326,2.412654076
1327,2.388529356
1328,2.424370579
1329,2.373324429
1330,2.419803928
1331,2.415596573
1332,2.420826583
1333,2.417043339
1334,2.403468485
1335,2.396616852
1336,2.400279302
1337,2.37496417
1338,2.404288965
1339,2.407807129
1340,2.400371456
1341,2.394826189
1342,2.402846013
1343,2.415988793
1344,2.397819044
1345,2.428317822
1346,2.403405821
1347,2.439982294
1348,2.39596833
1349,2.398003375
1350,2.421701733
1351,2.399587956
1352,2.407292412
1353,2.379481069
1354,2.405529357
1355,2.404869852
1356,2.414385196
1357,2.391391625
1358,2.393349358
1359,2.431329987
1360,2.375439714
1361,2.401418055
1362,2.387680453
1363,2.400343268
1364,2.397085862
1365,2.397719105
1366,2.439366572
1367,2.40914016
1368,2.400821667
1369,2.39303869
1370,2.391470014
1371,2.411162748
1372,2.398611576
1373,2.382766842
1374,2.369494021
1375,2.407223076
1376,2.423613498
1377,2.409222534
1378,2.413838676
1379,2.435646623
1380,2.437517378
1381,2.414933548
1382,2.415907038
1383,2.424187281
1384,2.388364129
1385,2.388651625
1386,2.375888364
1387,2.39097501
1388,2.39954193
1389,2.412848661
1390,2.380506729
1391,2.411382575
1392,2.425707247
1393,2.399836452
1394,2.397725863
1395,2.388935693
1396,2.406391376
1397,2.393098652
1398,2.400909659
1399,2.370591573
1400,2.404673065
1401,2.407180808
1402,2.400578417
1403,2.411461841
1404,2.405196594
1405,2.404632415
1406,2.432341304
1407,2.405733736
1408,2.420267681
1409,2.401179614
1410,2.407964821
1411,2.38637822
1412,2.396311395
1413,2.403079801
1414,2.390358066
1415,2.391685777
1416,2.419586134
1417,2.40649808
1418,2.398611163
1419,2.399376156
1420,2.404218948
1421,2.368426914
1422,2.377354899
1423,2.38891552
1424,2.404723332
1425,2.401013915
1426,2.413287432
1427,2.404412322
1428,2.385885296
1429,2.408983427
1430,2.395306067
1431,2.412852156
1432,2.379988209
1433,2.384523637
1434,2.408100524
1435,2.411033434
1436,2.415725867
1437,2.41710137
1438,2.409934938
1439,2.353537981
1440,2.422965675
1441,2.423381121
1442,2.401810324
1443,2.396045592
1444,2.421448872
1445,2.421308355
1446,2.37860605
1447,2.398892119
1448,2.392280471
1449,2.394357724
1450,2.386084907
1451,2.383858522
1452,2.398406787
1453,2.399714827
1454,2.388266094
1455,2.407916248
1456,2.404099894
1457,2.418628234
1458,2.402982929
1459,2.403490515
1460,2.408648105
1461,2.422376328
1462,2.414216609
1463,2.383373803
1464,2.413704639
1465,2.399822788
1466,2.401991467
1467,2.421747163
1468,2.401900863
1469,2.410089374
1470,2.403545215
1471,2.405454802
1472,2.391153788
1473,2.401853635
1474,2.352667837
1475,2.392476773
1476,2.393301332
1477,2.385457793
1478,2.402751197
1479,2.392340003
1480,2.384340048
1481,2.405843806
1482,2.406979448
1483,2.40431843
1484,2.393035967
1485,2.367129887
1486,2.407993881
1487,2.373393804
1488,2.403367481
1489,2.400174592
1490,2.396956433
1491,2.408671697
1492,2.411826613
1493,2.381051191
1494,2.425055079
1495,2.41190773
1496,2.407181893
1497,2.412289524
1498,2.415403389
1499,2.411620024
1500,2.416293929
1501,2.386477193
1502,2.412282342
1503,2.403466502
1504,2.413075802
1505,2.378630681
1506,2.396706149
1507,2.392942002
1508,2.41180369
1509,2.404153893
1510,2.435945949
1511,2.407748568
1512,2.38977376
1513,2.379722565
1514,2.395724261
1515,2.380110475
1516,2.405005446
1517,2.396722861
1518,2.380698025
1519,2.396466726
1520,2.408120832
1521,2.406599371
1522,2.400942242
1523,2.392290049
1524,2.391509845
1525,2.420774254
1526,2.391423722
1527,2.393990965
1528,2.382188585
1529,2.41158502
1530,2.39935294
1531,2.399712598
1532,2.38825075
1533,2.409929621
1534,2.402800592
1535,2.394045355
1536,2.373441086
1537,2.399116402
1538,2.387612258
1539,2.391929443
1540,2.385052138
1541,2.422213669
1542,2.393776264
1543,2.371297954
1544,2.39072077
1545,2.40342226
1546,2.424835992
1547,2.4118418
1548,2.432250873
1549,2.411672935
1550,2.376188729
1551,2.412422821
1552,2.396514188
1553,2.378820642
1554,2.38925313
1555,2.411594953
1556,2.381343943
1557,2.369466359
1558,2.410754032
1559,2.40151319
1560,2.435263719
1561,2.362757637
1562,2.381733957
1563,2.404960749
1564,2.41420722
1565,2.388347442
1566,2.399036678
1567,2.410355701
1568,2.390567775
1569,2.402965109
1570,2.37681172
1571,2.393645723
1572,2.420067749
1573,2.385950737
1574,2.418883953
1575,2.397241899
1576,2.430460577
1577,2.398013293
1578,2.396755124
1579,2.427255214
1580,2.37841897
1581,2.409672694
1582,2.415581357
1583,2.407996346
1584,2.378508438
1585,2.421291415
1586,2.427199387
1587,2.39854574
1588,2.397807045
1589,2.388133397
1590,2.401685285
1591,2.379688769
1592,2.3951991
1593,2.423435684
1594,2.403505974
1595,2.396006261
1596,2.412676208
1597,2.410036799
1598,2.408358595
1599,2.4226475
1600,2.400157101
1601,2.378027086
1602,2.408759401
1603,2.403912665
1604,2.381483146
1605,2.444943014
1606,2.392482909
1607,2.391874655
1608,2.384893956
1609,2.399390709
1610,2.399333459
1611,2.400319178
1612,2.413026733
1613,2.418555103
1614,2.38829665
1615,2.400718619
1616,2.396091953
1617,2.384119937
1618,2.43067403
1619,2.410758475
1620,2.397186763
1621,2.403160132
1622,2.388762157
1623,2.406973409
1624,2.394039065
1625,2.425660731
1626,2.425929343
1627,2.408542028
1628,2.411663415
1629,2.398905721
1630,2.419264603
1631,2.43143362
1632,2.395318116
1633,2.400992593
1634,2.392355567
1635,2.390891783
1636,2.406724469
1637,2.386523687
1638,2.39402003
1639,2.396016715
1640,2.40583127
1641,2.403021017
1642,2.386544664
1643,2.406567859
1644,2.406536167
1645,2.386831457
1646,2.402454262
1647,2.394335531
1648,2.417746221
1649,2.385265201
1650,2.405919945
1651,2.392759319
1652,2.41956767
1653,2.390712368
1654,2.422097046
1655,2.401936319
1656,2.396920074
1657,2.43406596
1658,2.391832033
1659,2.41120375
1660,2.385658471
1661,2.39192417
1662,2.40517269
1663,2.377167998
1664,2.372022062
1665,2.39741134
1666,2.395731909
1667,2.399003196
1668,2.405244036
1669,2.376867668
1670,2.414307296
1671,2.398484035
1672,2.407275601
1673,2.414209657
1674,2.386321224
1675,2.39206828
1676,2.393694633
1677,2.400052592
1678,2.399437592
1679,2.436850417
1680,2.408106778
1681,2.407158493
1682,2.423487486
1683,2.410025532
1684,2.413015895
1685,2.42233186
1686,2.39734595
1687,2.424177125
1688,2.393752317
1689,2.376488629
1690,2.367732027
1691,2.39224717
1692,2.402753608
1693,2.401085817
1694,2.391596966
1695,2.399950457
1696,2.429072439
1697,2.417481819
1698,2.410710191
1699,2.420390757
1700,2.368592324
1701,2.380649596
1702,2.407811792
1703,2.39030968
1704,2.391183545
1705,2.39239328
1706,2.401137889
1707,2.400330891
1708,2.402120199
1709,2.414605631
1710,2.380199613
1711,2.382915416
1712,2.41484537
1713,2.403496107
1714,2.40991361
1715,2.388514834
1716,2.400326163
1717,2.391886963
1718,2.413749578
1719,2.436606437
1720,2.410077919
1721,2.395230833
1722,2.400133087
1723,2.415593749
1724,2.404483705
1725,2.382274849
1726,2.4070594
1727,2.399801407
1728,2.410417528
1729,2.407849321
1730,2.395683122
1731,2.395893544
1732,2.408263627
1733,2.396965449
1734,2.409111533
1735,2.413852892
1736,2.398963041
1737,2.420727339
1738,2.389296408
1739,2.396263382
1740,2.398674309
1741,2.398058051
1742,2.361464205
1743,2.391625069
1744,2.424173063
1745,2.414904892
1746,2.418996524
1747,2.419996702
1748,2.417041914
1749,2.423427774
1750,2.390985574
1751,2.396672649
1752,2.394300258
1753,2.385169686
1754,2.407040126
1755,2.411436733
1756,2.396297769
1757,2.389670034
1758,2.388264588
1759,2.389070452
1760,2.418348307
1761,2.416402115
1762,2.402816138
1763,2.391409328
1764,2.380214796
1765,2.399269086
1766,2.407254321
1767,2.388149829
1768,2.415365608
1769,2.380907191
1770,2.415914113
1771,2.391521156
1772,2.408449477
1773,2.402365894
1774,2.397124915
1775,2.410892529
1776,2.396626238
1777,2.411874981
1778,2.393348849
1779,2.415357837
1780,2.377647249
1781,2.410635305
1782,2.413730802
1783,2.400338603
1784,2.38891361
1785,2.398611674
1786,2.361796513
1787,2.394631976
1788,2.420959581
1789,2.409770622
1790,2.377169674
1791,2.38140158
1792,2.392046316
1793,2.398144851
1794,2.385767393
1795,2.403776394
1796,2.399467963
1797,2.40455752
1798,2.352973125
1799,2.374721439
1800,2.404043867
1801,2.409556599
1802,2.386009501
1803,2.383279934
1804,2.40391465
1805,2.401186574
1806,2.407064457
1807,2.372706697
1808,2.376600756
1809,2.403962604
1810,2.405660118
1811,2.403995966
1812,2.406637636
1813,2.404996072
1814,2.405816392
1815,2.410628133
1816,2.385164882
1817,2.391545955
1818,2.417086115
1819,2.389297196
1820,2.37245242
1821,2.400013037
1822,2.402495297
1823,2.381058047
1824,2.392668522
1825,2.386631894
1826,2.422016728
1827,2.4055401
1828,2.398084489
1829,2.393434295
1830,2.40343165
1831,2.400612595
1832,2.401257703
1833,2.405159139
1834,2.390015637
1835,2.403168
1836,2.392007785
1837,2.404512086
1838,2.403397963
1839,2.375620592
1840,2.399536057
1841,2.395232174
1842,2.393061594
1843,2.407859138
1844,2.393386263
1845,2.374571833
1846,2.391717905
1847,2.403341588
1848,2.370184194
1849,2.398266489
1850,2.397865739
1851,2.380769683
1852,2.402706213
1853,2.407062187
1854,2.403772831
1855,2.399575585
1856,2.406271618
1857,2.405638047
1858,2.418878624
1859,2.386376869
1860,2.382884036
1861,2.388249576
1862,2.393058131
1863,2.373222954
1864,2.382453832
1865,2.433994731
1866,2.409348473
1867,2.388955882
1868,2.396011106
1869,2.382475006
1870,2.397449969
1871,2.407520525
1872,2.397805287
1873,2.396532283
1874,2.411259463
1875,2.398997561
1876,2.391159291
1877,2.407225913
1878,2.416220932
1879,2.367599329
1880,2.409282505
1881,2.404465066
1882,2.40313983
1883,2.398096506
1884,2.376397357
1885,2.402987382
1886,2.402066236
1887,2.407201653
1888,2.411457405
1889,2.405278046
1890,2.384601577
1891,2.408366163
1892,2.406577569
1893,2.39459286
1894,2.38874136
1895,2.40690178
1896,2.400398313
1897,2.374510428
1898,2.401538783
1899,2.377691135
1900,2.386581366
1901,2.426218858
1902,2.396016472
1903,2.398383973
1904,2.387448614
1905,2.391347216
1906,2.412340833
1907,2.412678527
1908,2.418302702
1909,2.389689169
1910,2.416869106
1911,2.399088589
1912,2.391274771
1913,2.427621433
1914,2.390389776
1915,2.412329139
1916,2.414531749
1917,2.415491256
1918,2.382126979
1919,2.393986256
1920,2.391063247
1921,2.401880405
1922,2.40907658
1923,2.397906208
1924,2.408199165
1925,2.391750413
1926,2.397934391
1927,2.390330092
1928,2.410233787
1929,2.3909587
1930,2.389886035
1931,2.402392628
1932,2.388297846
1933,2.41029472
1934,2.404932178
1935,2.416051039
1936,2.406836479
1937,2.410715221
1938,2.386287476
1939,2.399585157
1940,2.40824575
1941,2.399132149
1942,2.419409427
1943,2.374138596
1944,2.386876701
1945,2.395292867
1946,2.390201072
1947,2.428176231
1948,2.376050951
1949,2.392458948
1950,2.39653704
1951,2.402103193
1952,2.39300279
1953,2.410434385
1954,2.394546429
1955,2.400689023
1956,2.415235114
1957,2.441628846
1958,2.39913969
1959,2.416474595
1960,2.422709136
1961,2.381838563
1962,2.389380883
1963,2.406135489
1964,2.395685046
1965,2.415576879
1966,2.387873028
1967,2.395028724
1968,2.404662407
1969,2.387393807
1970,2.410231015
1971,2.406140612
1972,2.407060716
1973,2.404952323
1974,2.390874572
1975,2.406685028
1976,2.390012332
1977,2.404842805
1978,2.410149177
1979,2.386648315
1980,2.380955583
1981,2.382390666
1982,2.393552346
1983,2.435205493
1984,2.361557489
1985,2.401063596
1986,2.398327622
1987,2.386262759
1988,2.391705805
1989,2.398487524
1990,2.398789132
1991,2.369172905
1992,2.385213095
1993,2.375021081
1994,2.409424902
1995,2.398728822
1996,2.379095946
1997,2.416289279
1998,2.436184098
1999,2.405468744
2000,2.381515539
2001,2.395670714
2002,2.415356819
2003,2.383754631
2004,2.412103385
2005,2.419135073
2006,2.415068588
2007,2.414738659
2008,2.400804836
2009,2.400754306
2010,2.40248303
2011,2.415657563
2012,2.372099249
2013,2.380510098
2014,2.381885988
2015,2.419625864
2016,2.386324909
2017,2.423739786
2018,2.384880356
2019,2.407583146
2020,2.402146216
2021,2.387651975
2022,2.402208837
2023,2.400220625
2024,2.39840327
2025,2.428854977
2026,2.412268003
2027,2.423496047
2028,2.408932334
2029,2.390516536
2030,2.416516634
2031,2.362570963
2032,2.39937701
2033,2.387180332
2034,2.409650507
2035,2.404030557
2036,2.381948546
2037,2.398911023
2038,2.420818163
2039,2.388855922
2040,2.405445487
2041,2.422397553
2042,2.403843457
2043,2.394364937
2044,2.400045578
2045,2.399133634
2046,2.375400334
2047,2.408074984
2048,2.381246017
2049,2.385385709
2050,2.430933833
2051,2.383260485
2052,2.378933789
2053,2.417375372
2054,2.408448573
2055,2.377356311
2056,2.40131833
2057,2.389298854
2058,2.386296744
2059,2.391684334
2060,2.399832875
2061,2.400032803
2062,2.390756415
2063,2.395705084
2064,2.382564378
2065,2.413545721
2066,2.407588857
2067,2.394700933
2068,2.412403324
2069,2.380215406
2070,2.406294074
2071,2.400989846
2072,2.4149829
2073,2.398422925
2074,2.390618393
2075,2.394958295
2076,2.402435272
2077,2.391598144
2078,2.403067798
2079,2.384529738
2080,2.382597992
2081,2.399002454
2082,2.427151036
2083,2.399106459
2084,2.38981946
2085,2.378808262
2086,2.380036261
2087,2.379594394
2088,2.420526142
2089,2.388127604
2090,2.406691631
2091,2.385493806
2092,2.41127647
2093,2.384357774
2094,2.373367882
2095,2.401621418
2096,2.403719448
2097,2.389793842
2098,2.375443481
2099,2.391199847
2100,2.385639214
2101,2.414788141
2102,2.363013442
2103,2.37341003
2104,2.405965262
2105,2.359966921
2106,2.41484078
2107,2.404519764
2108,2.396124404
2109,2.405222017
2110,2.406146126
2111,2.385827656
2112,2.393266233
2113,2.402981219
2114,2.419212296
2115,2.391106642
2116,2.403276641
2117,2.399014578
2118,2.38318551
2119,2.409595135
2120,2.419909256
2121,2.388318455
2122,2.428423797
2123,2.407139324
2124,2.435655003
2125,2.392317141
2126,2.42143088
2127,2.397011454
2128,2.385684801
2129,2.398230151
2130,2.416067273
2131,2.394442943
2132,2.419375243
2133,2.413042708
2134,2.410381844
2135,2.404906866
2136,2.409950662
2137,2.41458864
2138,2.37880089
2139,2.383719452
2140,2.376875282
2141,2.392733493
2142,2.41747947
2143,2.409128907
2144,2.415052601
2145,2.414285559
2146,2.412778973
2147,2.406653163
2148,2.403075731
2149,2.418025506
2150,2.389499884
2151,2.406494649
2152,2.408024839
2153,2.408877968
2154,2.417950885
2155,2.396857107
2156,2.404393794
2157,2.387248361
2158,2.391130124
2159,2.411028156
2160,2.425696202
2161,2.392345695
2162,2.397655906
2163,2.411968664
2164,2.4104411
2165,2.433838163
2166,2.402545133
2167,2.416302323
2168,2.389673969
2169,2.437106492
2170,2.400709678
2171,2.398509707
2172,2.439212411
2173,2.407733697
2174,2.407716358
2175,2.402966118
2176,2.399913202
2177,2.389929147
2178,2.400181521
2179,2.387625493
2180,2.385211607
2181,2.404718417
2182,2.400643133
2183,2.414796991
2184,2.414478367
2185,2.423183985
2186,2.406542127
2187,2.397166346
2188,2.392365363
2189,2.384478786
2190,2.44038899
2191,2.392805199
2192,2.384866302
2193,2.436698205
2194,2.417198712
2195,2.396580511
2196,2.39103154
2197,2.396047187
2198,2.405760345
2199,2.396814528
2200,2.396665918
2201,2.432370717
2202,2.408549422
2203,2.423759148
2204,2.38064096
2205,2.413895215
2206,2.382603889
2207,2.386005711
2208,2.392693427
2209,2.380365844
2210,2.420061993
2211,2.382046242
2212,2.381371134
2213,2.395118756
2214,2.4195567
2215,2.400390074
2216,2.394432424
2217,2.409831719
2218,2.417865928
2219,2.40318242
2220,2.408414947
2221,2.391276056
2222,2.400045284
2223,2.420810961
2224,2.405974867
2225,2.392235652
2226,2.394846254
2227,2.429753305
2228,2.414507266
2229,2.377765297
2230,2.379969488
2231,2.398611125
2232,2.409206437
2233,2.417000831
2234,2.401091698
2235,2.395570488
2236,2.396806922
2237,2.419334821
2238,2.391187246
2239,2.393507008
2240,2.39287832
2241,2.402186453
2242,2.404924814
2243,2.40030282
2244,2.393814013
2245,2.401130089
2246,2.408475572
2247,2.41796871
2248,2.375716289
2249,2.403320126
2250,2.378659796
2251,2.424660763
2252,2.403834924
2253,2.391867538
2254,2.392278554
2255,2.398920881
2256,2.392097815
2257,2.391475789
2258,2.388746287
2259,2.417446189
2260,2.391776966
2261,2.414337133
2262,2.381138574
2263,2.39219694
2264,2.436506237
2265,2.426380551
2266,2.404508057
2267,2.406842115
2268,2.387835262
2269,2.399042701
2270,2.412881093
2271,2.395547375
2272,2.370201066
2273,2.404054363
2274,2.392877364
2275,2.409240513
2276,2.378833519
2277,2.379063644
2278,2.395318276
2279,2.398402024
2280,2.418345864
2281,2.394590907
2282,2.427843844
2283,2.414112488
2284,2.390437569
2285,2.409051724
2286,2.410312949
2287,2.383123492
2288,2.379856231
2289,2.395308773
2290,2.380238775
2291,2.439364244
2292,2.399029059
2293,2.394835251
2294,2.40195078
2295,2.402768181
2296,2.429908381
2297,2.434596036
2298,2.402857273
2299,2.396081326
2300,2.419844716
2301,2.387986477
2302,2.372182965
2303,2.424768885
2304,2.40943756
2305,2.388483883
2306,2.398028969
2307,2.4021631
2308,2.405569938
2309,2.379712606
2310,2.390014012
2311,2.394628834
2312,2.403772367
2313,2.391940131
2314,2.390489656
2315,2.397733206
2316,2.408083439
2317,2.41281209
2318,2.416449898
2319,2.394057469
2320,2.3871828
2321,2.407612962
2322,2.403773586
2323,2.41270431
2324,2.399412719
2325,2.406159207
2326,2.386896757
2327,2.393799181
2328,2.41557826
2329,2.394627395
2330,2.411782808
2331,2.390741339
2332,2.400555992
2333,2.4015299
2334,2.406586579
2335,2.397322081
2336,2.404582299
2337,2.406249928
2338,2.424076067
2339,2.403065454
2340,2.41468243
2341,2.396930265
2342,2.42722242
2343,2.393360791
2344,2.445567365
2345,2.402250251
2346,2.39191046
2347,2.401422662
2348,2.405134506
2349,2.394561216
2350,2.391623921
2351,2.414709694
2352,2.378380922
2353,2.396702946
2354,2.408484499
2355,2.403532113
2356,2.389256628
2357,2.390363961
2358,2.383695344
2359,2.366544048
2360,2.402115872
2361,2.402297553
2362,2.404380562
2363,2.390235305
2364,2.414304975
2365,2.390342105
2366,2.397462148
2367,2.380107223
2368,2.380790201
2369,2.389661674
2370,2.382017
2371,2.403813121
2372,2.406794583
2373,2.39762469
2374,2.426818653
2375,2.402207614
2376,2.39823491
2377,2.431326873
2378,2.38971155
2379,2.406753118
2380,2.370033762
2381,2.41359435
2382,2.39944929
2383,2.378354498
2384,2.385438563
2385,2.409374131
2386,2.407537097
2387,2.381789052
2388,2.404579718
2389,2.397861526
2390,2.416868589
2391,2.417792652
2392,2.410159825
2393,2.386299026
2394,2.405871811
2395,2.409239896
2396,2.431381023
2397,2.39161691
2398,2.402719818
2399,2.4018679
2400,2.406554555
2401,2.373860645
2402,2.378485119
2403,2.40138688
2404,2.424841384
2405,2.406517974
2406,2.399815396
2407,2.419429278
2408,2.400374555
2409,2.381329258
2410,2.416256998
2411,2.405759052
2412,2.389291608
2413,2.392964219
2414,2.37997133
2415,2.408332437
2416,2.393205669
2417,2.395408301
2418,2.408726847
2419,2.42122443
2420,2.389182264
2421,2.40204857
2422,2.393709446
2423,2.403441562
2424,2.41707285
2425,2.410283359
2426,2.398874444
2427,2.394051789
2428,2.378588349
2429,2.406100201
2430,2.393022485
2431,2.390974992
2432,2.401049962
2433,2.419013031
2434,2.362609372
2435,2.405402301
2436,2.401014617
2437,2.400161864
2438,2.425882443
2439,2.39062948
2440,2.375188426
2441,2.39330658
2442,2.434537484
2443,2.404712913
2444,2.40988489
2445,2.406346037
2446,2.393569898
2447,2.419313866
2448,2.41593712
2449,2.403169294
2450,2.407632581
2451,2.401911464
2452,2.400008844
2453,2.398769866
2454,2.410491612
2455,2.415973764
2456,2.401642677
2457,2.395011185
2458,2.382688063
2459,2.407068478
2460,2.406821883
2461,2.404764161
2462,2.360668969
2463,2.403915844
2464,2.377202583
2465,2.388506093
2466,2.399888625
2467,2.403764366
2468,2.425575967
2469,2.386908572
2470,2.380728576
2471,2.403906037
2472,2.377426208
2473,2.400629676
2474,2.405087604
2475,2.42542748
2476,2.390219688
2477,2.388375455
2478,2.395180557
2479,2.413816565
2480,2.399824252
2481,2.411896265
2482,2.3941109
2483,2.39585774
2484,2.382078298
2485,2.409232017
2486,2.38412466
2487,2.418713854
2488,2.386034311
2489,2.402660539
2490,2.40308452
2491,2.405380161
2492,2.386575109
2493,2.395578403
2494,2.431365334
2495,2.406415299
2496,2.407885479
2497,2.393600872
2498,2.416552015
2499,2.382794024
2500,2.407945214
2501,2.410537685
2502,2.384569899
2503,2.409835742
2504,2.437426214
2505,2.417530459
2506,2.388953345
2507,2.409139936
2508,2.412291662
2509,2.414146772
2510,2.423104048
2511,2.402739956
2512,2.379357797
2513,2.407046523
2514,2.39772228
2515,2.396678661
2516,2.37964631
2517,2.422925509
2518,2.407053084
2519,2.390171961
2520,2.413148414
2521,2.412119608
2522,2.380357685
2523,2.42645377
2524,2.390802963
2525,2.38326659
2526,2.405185833
2527,2.426900162
2528,2.405440126
2529,2.39109345
2530,2.404135931
2531,2.4029195
2532,2.398527422
2533,2.407241827
2534,2.396156085
2535,2.405356838
2536,2.395424369
2537,2.399606251
2538,2.397514802
2539,2.387829774
2540,2.420708687
2541,2.39597352
2542,2.404391811
2543,2.402110719
2544,2.402734871
2545,2.384196848
2546,2.399295414
2547,2.375779272
2548,2.415529687
2549,2.38117444
2550,2.415324496
2551,2.388732254
2552,2.401209814
2553,2.392541055
2554,2.379993533
2555,2.397434579
2556,2.375062016
2557,2.408176645
2558,2.398721216
2559,2.40515531
2560,2.403791754
2561,2.391212533
2562,2.419279181
2563,2.38069587
2564,2.394488654
2565,2.400742866
2566,2.40773405
2567,2.427958778
2568,2.373919307
2569,2.403322932
2570,2.405212331
2571,2.390919484
2572,2.401939302
2573,2.415869815
2574,2.406361772
2575,2.401963798
2576,2.39628028
2577,2.41095869
2578,2.412932408
2579,2.379710397
2580,2.429041887
2581,2.405776028
2582,2.409404587
2583,2.419546507
2584,2.409310885
2585,2.418307608
2586,2.360033063
2587,2.398948256
2588,2.389372411
2589,2.385481118
2590,2.412762624
2591,2.407875846
2592,2.400995729
2593,2.409169099
2594,2.38769921
2595,2.392333505
2596,2.426379465
2597,2.388359412
2598,2.422406299
2599,2.417396928
2600,2.402876606
2601,2.399864738
2602,2.382452644
2603,2.397795614
2604,2.406180069
2605,2.40861027
2606,2.407974899
2607,2.382698384
2608,2.39817539
2609,2.400149158
2610,2.399888453
2611,2.408773658
2612,2.397537973
2613,2.40315011
2614,2.395516925
2615,2.414928038
2616,2.418465907
2617,2.402009302
2618,2.430502434
2619,2.401859229
2620,2.415320893
2621,2.398670272
2622,2.408993347
2623,2.388792615
2624,2.381591256
2625,2.391010472
2626,2.413357054
2627,2.400372822
2628,2.391713283
2629,2.389180986
2630,2.364645871
2631,2.381160064
2632,2.398181248
2633,2.388333694
2634,2.402451459
2635,2.417297464
2636,2.403115361
2637,2.410918786
2638,2.407717788
2639,2.39339914
2640,2.419148458
2641,2.397231935
2642,2.427435635
2643,2.404319078
2644,2.389925934
2645,2.386429944
2646,2.401386375
2647,2.392511937
2648,2.410238519
2649,2.394212195
2650,2.381301657
2651,2.388638071
2652,2.380088016
2653,2.395131613
2654,2.416035396
2655,2.395061369
2656,2.39279286
2657,2.393562994
2658,2.387102349
2659,2.411228837
2660,2.412749203
2661,2.424312272
2662,2.375503265
2663,2.415347595
2664,2.392329621
2665,2.409975285
2666,2.40094457
2667,2.393605836
2668,2.386079298
2669,2.401952755
2670,2.41463729
2671,2.400055822
2672,2.424118575
2673,2.368074143
2674,2.406899424
2675,2.398575337
2676,2.388120014
2677,2.410360679
2678,2.408966684
2679,2.411842848
2680,2.38753804
2681,2.412851489
2682,2.393180449
2683,2.397179944
2684,2.394062565
2685,2.378468705
2686,2.370089877
2687,2.405492799
2688,2.411600839
2689,2.390596059
2690,2.406060647
2691,2.416810031
2692,2.412373947
2693,2.395164689
2694,2.419781682
2695,2.425418419
2696,2.425714993
2697,2.404220976
2698,2.381380096
2699,2.389695749
2700,2.41552959
2701,2.394758625
2702,2.405250097
2703,2.38491677
2704,2.411311428
2705,2.40422141
2706,2.359594574
2707,2.398463026
2708,2.401947057
2709,2.375868462
2710,2.42463096
2711,2.384601638
2712,2.379584597
2713,2.391644014
2714,2.405562864
2715,2.392347536
2716,2.415262218
2717,2.412196153
2718,2.410498484
2719,2.407200725
2720,2.395266922
2721,2.374110083
2722,2.37947946
2723,2.387040387
2724,2.406589977
2725,2.406941047
2726,2.394828053
2727,2.412542714
2728,2.36807105
2729,2.410559576
2730,2.409431568
2731,2.385013027
2732,2.398871283
2733,2.415869629
2734,2.3781629
2735,2.41158444
2736,2.415766837
2737,2.398699025
2738,2.395917448
2739,2.391480914
2740,2.418579185
2741,2.407672015
2742,2.390973491
2743,2.401586214
2744,2.405472125
2745,2.385323532
2746,2.416091857
2747,2.41950379
2748,2.404809397
2749,2.396941723
2750,2.39670755
2751,2.423104045
2752,2.406982089
2753,2.396736326
2754,2.378595266
2755,2.381154185
2756,2.400107266
2757,2.400683386
2758,2.418416734
2759,2.422771456
2760,2.383394993
2761,2.392762304
2762,2.388486188
2763,2.415148105
2764,2.416625442
2765,2.383541067
2766,2.409061617
2767,2.395643502
2768,2.411624635
2769,2.412805463
2770,2.39147712
2771,2.390507693
2772,2.411470334
2773,2.408963415
2774,2.424272584
2775,2.40910464
2776,2.418773755
2777,2.384886601
2778,2.372317035
2779,2.416137489
2780,2.395373585
2781,2.415836142
2782,2.398025453
2783,2.402218882
2784,2.390611105
2785,2.384389039
2786,2.378976264
2787,2.391437898
2788,2.379565319
2789,2.366410613
2790,2.389695359
2791,2.417069543
2792,2.404437041
2793,2.401806271
2794,2.407442546
2795,2.382986485
2796,2.388281761
2797,2.403684714
2798,2.3867584
2799,2.390670835
2800,2.407742525
2801,2.407004703
2802,2.438924384
2803,2.40295418
2804,2.362256749
2805,2.391078241
2806,2.371710976
2807,2.427078718
2808,2.407402077
2809,2.403198344
2810,2.393968617
2811,2.391455872
2812,2.39121604
2813,2.397246734
2814,2.413023437
2815,2.403391716
2816,2.383698763
2817,2.386138263
2818,2.389524832
2819,2.403837298
2820,2.392799937
2821,2.393067835
2822,2.403460664
2823,2.402663386
2824,2.40284792
2825,2.385635688
2826,2.39978526
2827,2.384687558
2828,2.381020586
2829,2.418011917
2830,2.382052976
2831,2.384433582
2832,2.393009109
2833,2.410024685
2834,2.418698263
2835,2.425015704
2836,2.407741363
2837,2.388628431
2838,2.40288346
2839,2.390092773
2840,2.393379006
2841,2.4015394
2842,2.415002619
2843,2.377709772
2844,2.42163407
2845,2.407629325
2846,2.381986681
2847,2.421420981
2848,2.397865156
2849,2.399233454
2850,2.411777819
2851,2.405219077
2852,2.411582546
2853,2.422692758
2854,2.403684666
2855,2.412118414
2856,2.393744653
2857,2.380067514
2858,2.410894694
2859,2.388685624
2860,2.407921416
2861,2.400819684
2862,2.388350697
2863,2.394027739
2864,2.381814423
2865,2.397211452
2866,2.398362431
2867,2.421748545
2868,2.409494717
2869,2.393922527
2870,2.410824515
2871,2.388177203
2872,2.412473535
2873,2.398031756
2874,2.389935364
2875,2.399172209
2876,2.393230469
2877,2.407463811
2878,2.415255087
2879,2.41236299
2880,2.409599708
2881,2.38735864
2882,2.378047195
2883,2.40044757
2884,2.389932013
2885,2.407722106
2886,2.399864615
2887,2.383211056
2888,2.407873674
2889,2.426584194
2890,2.396152956
2891,2.407699951
2892,2.385959298
2893,2.42327647
2894,2.399239204
2895,2.394207771
2896,2.388403886
2897,2.378608477
2898,2.405063741
2899,2.436351889
2900,2.384651178
2901,2.394559754
2902,2.392762202
2903,2.388481024
2904,2.387655813
2905,2.393826666
2906,2.399145883
2907,2.427423336
2908,2.403105285
2909,2.373083318
2910,2.376592454
2911,2.421190559
2912,2.381494733
2913,2.41023162
2914,2.391274047
2915,2.411574077
2916,2.399384157
2917,2.409267879
2918,2.386069324
2919,2.413412112
2920,2.388969643
2921,2.395858292
2922,2.375369776
2923,2.394672527
2924,2.397569227
2925,2.397540817
2926,2.409551659
2927,2.405435493
2928,2.41233114
2929,2.40203801
2930,2.401196487
2931,2.409360798
2932,2.394612754
2933,2.37509876
2934,2.420151515
2935,2.385023584
2936,2.381979536
2937,2.414616414
2938,2.381329556
2939,2.424810637
2940,2.400633406
2941,2.394086414
2942,2.399472929
2943,2.379523225
2944,2.385949193
2945,2.422334445
2946,2.397807686
2947,2.362549687
2948,2.429102371
2949,2.386406838
2950,2.418715951
2951,2.393279315
2952,2.377473548
2953,2.362603036
2954,2.411979182
2955,2.416056861
2956,2.419472846
2957,2.4040481
2958,2.426219997
2959,2.362798547
2960,2.389039198
2961,2.40459007
2962,2.4274355
2963,2.41271618
2964,2.410966225
2965,2.383645451
2966,2.396562588
2967,2.412855224
2968,2.393859867
2969,2.406466236
2970,2.406710482
2971,2.396795475
2972,2.394890128
2973,2.404300632
2974,2.39857737
2975,2.404295188
2976,2.422484552
2977,2.408715422
2978,2.412033362
2979,2.388402399
2980,2.402164232
2981,2.390990012
2982,2.406522682
2983,2.392949646
2984,2.407222637
2985,2.400066412
2986,2.410374896
2987,2.396205548
2988,2.400060982
2989,2.403404681
2990,2.400437628
2991,2.380566046
2992,2.406669575
2993,2.390142061
2994,2.395997885
2995,2.381046743
2996,2.420616834
2997,2.415799872
2998,2.412667056
2999,2.376143525
3000,2.406977774
3001,2.41662322
3002,2.377546074
3003,2.41076566
3004,2.397808894
3005,2.400306026
3006,2.420356687
3007,2.419964899
3008,2.400120089
3009,2.400819479
3010,2.412990089
3011,2.401070276
3012,2.427888176
3013,2.431868919
3014,2.39979904
3015,2.371176315
3016,2.41905619
3017,2.374681844
3018,2.393408928
3019,2.402592581
3020,2.394069423
3021,2.384536014
3022,2.403235313
3023,2.381592341
3024,2.376345146
3025,2.390750463
3026,2.381588078
3027,2.403883462
3028,2.361463268
3029,2.401125982
3030,2.418131297
3031,2.394869996
3032,2.393407688
3033,2.397503795
3034,2.411865366
3035,2.4097745
3036,2.400599891
3037,2.380270467
3038,2.380591463
3039,2.422854528
3040,2.428296043
3041,2.407053555
3042,2.393251147
3043,2.391705901
3044,2.416861412
3045,2.394302513
3046,2.408306952
3047,2.427831475
3048,2.431900622
3049,2.398340715
3050,2.410525201
3051,2.409180676
3052,2.376898625
3053,2.364973397
3054,2.387110698
3055,2.381267199
3056,2.407508351
3057,2.385633719
3058,2.403865408
3059,2.380385268
3060,2.402340641
3061,2.376645533
3062,2.393669438
3063,2.398119781
3064,2.401706706
3065,2.392395541
3066,2.394552086
3067,2.416023782
3068,2.397784109
3069,2.39229386
3070,2.37879807
3071,2.409813448
3072,2.385122249
3073,2.399678205
3074,2.402936069
3075,2.405713379
3076,2.389420485
3077,2.397313755
3078,2.380750145
3079,2.407173051
3080,2.373974256
3081,2.360829075
3082,2.406004868
3083,2.406656518
3084,2.406784524
3085,2.383546109
3086,2.395771128
3087,2.398176404
3088,2.404581501
3089,2.412124136
3090,2.411278726
3091,2.387174459
3092,2.39816054
3093,2.418463237
3094,2.398209789
3095,2.402832098
3096,2.426631935
3097,2.382410299
3098,2.404138566
3099,2.402879297
3100,2.383286798
3101,2.397845972
3102,2.382855398
3103,2.394803979
3104,2.412728002
3105,2.40248925
3106,2.412588054
3107,2.405187341
3108,2.389020309
3109,2.410451601
3110,2.388257221
3111,2.394226259
3112,2.419187567
3113,2.419944864
3114,2.386110595
3115,2.396249396
3116,2.414424614
3117,2.372880656
3118,2.393529974
3119,2.410956799
3120,2.419794381
3121,2.38963582
3122,2.425450989
3123,2.393289106
3124,2.423220527
3125,2.398356646
3126,2.410030622
3127,2.423604842
3128,2.378610926
3129,2.399180885
3130,2.382064703
3131,2.372854711
3132,2.412493736
3133,2.389744768
3134,2.386282
3135,2.381509358
3136,2.416490695
3137,2.392657133
3138,2.400577816
3139,2.385385469
3140,2.39191414
3141,2.377825229
3142,2.389568799
3143,2.382891185
3144,2.3999169
3145,2.393750303
3146,2.409454585
3147,2.409776979
3148,2.427730272
3149,2.423607763
3150,2.420701963
3151,2.397837807
3152,2.392749689
3153,2.436356096
3154,2.402506727
3155,2.420455645
3156,2.424721375
3157,2.419326516
3158,2.394847094
3159,2.385159757
3160,2.400220182
3161,2.397275052
3162,2.395869806
3163,2.423159332
3164,2.391003985
3165,2.402242615
3166,2.409033068
3167,2.384662487
3168,2.415876507
3169,2.39958899
3170,2.369107644
3171,2.421661557
3172,2.388363747
3173,2.398250324
3174,2.403235548
3175,2.376957348
3176,2.390487021
3177,2.403282888
3178,2.411426598
3179,2.391210661
3180,2.384713428
3181,2.420937279
3182,2.361332107
3183,2.401843228
3184,2.408248817
3185,2.391291452
3186,2.401904515
3187,2.404405882
3188,2.380549848
3189,2.416829258
3190,2.395413664
3191,2.394823647
3192,2.402840621
3193,2.399675152
3194,2.415648049
3195,2.409238292
3196,2.418508455
3197,2.388796137
3198,2.381408092
3199,2.403113534
3200,2.392802229
3201,2.383571874
3202,2.405375207
3203,2.378553931
3204,2.372908714
3205,2.420503201
3206,2.39418277
3207,2.386322662
3208,2.449363105
3209,2.382847293
3210,2.399401596
3211,2.409673774
3212,2.391157532
3213,2.389331423
3214,2.390150208
3215,2.377964854
3216,2.402162821
3217,2.425992903
3218,2.399483482
3219,2.405892495
3220,2.384175403
3221,2.399773388
3222,2.390074892
3223,2.39043211
3224,2.408465598
3225,2.405526644
3226,2.395182395
3227,2.401514145
3228,2.375707583
3229,2.376216366
3230,2.379578194
3231,2.397470249
3232,2.394178502
3233,2.411031211
3234,2.39982733
3235,2.424305837
3236,2.414042202
3237,2.393789548
3238,2.404724596
3239,2.409497271
3240,2.403827927
3241,2.389486445
3242,2.382299019
3243,2.392193265
3244,2.39900753
3245,2.393506927
3246,2.403552776
3247,2.400116699
3248,2.389014159
3249,2.435816809
3250,2.42913928
3251,2.402071575
3252,2.404658487
3253,2.413938966
3254,2.402824546
3255,2.416028222
3256,2.414875685
3257,2.440997076
3258,2.416054419
3259,2.411684992
3260,2.405747995
3261,2.386814979
3262,2.388137605
3263,2.414955213
3264,2.394925146
3265,2.407309117
3266,2.372075301
3267,2.402966956
3268,2.382071543
3269,2.382137469
3270,2.397763151
3271,2.401965484
3272,2.404703489
3273,2.398022856
3274,2.368502552
3275,2.432882499
3276,2.406532845
3277,2.393704052
3278,2.382021383
3279,2.424084751
3280,2.405563856
3281,2.369768168
3282,2.399637218
3283,2.381851543
3284,2.385098982
3285,2.391901178
3286,2.388343026
3287,2.403834098
3288,2.397645451
3289,2.411090883
3290,2.372633819
3291,2.420668769
3292,2.402304663
3293,2.403703465
3294,2.414767121
3295,2.449889326
3296,2.374473372
3297,2.389235474
3298,2.393012869
3299,2.408009064
3300,2.402424592
3301,2.409177292
3302,2.415981084
3303,2.411396709
3304,2.403473685
3305,2.402446374
3306,2.38404589
3307,2.404494743
3308,2.39585535
3309,2.392229586
3310,2.397851894
3311,2.40141609
3312,2.403716753
3313,2.414305763
3314,2.412226107
3315,2.390768388
3316,2.391188212
3317,2.384421805
3318,2.402453496
3319,2.383020386
3320,2.38373276
3321,2.380727866
3322,2.410163489
3323,2.393101467
3324,2.36923326
3325,2.39498664
3326,2.386164565
3327,2.416204269
3328,2.413161719
3329,2.395054332
3330,2.41972441
3331,2.392944288
3332,2.399622228
3333,2.385508138
3334,2.393082734
3335,2.39398454
3336,2.383154784
3337,2.409916007
3338,2.406038063
3339,2.40339412
3340,2.408856343
3341,2.412050917
3342,2.390459482
3343,2.374449494
3344,2.415178468
3345,2.413105574
3346,2.409553277
3347,2.399657875
3348,2.379131803
3349,2.397252777
3350,2.407739306
3351,2.410546499
3352,2.426378641
3353,2.42513912
3354,2.410741595
3355,2.407881653
3356,2.409829274
3357,2.416882356
3358,2.373290116
3359,2.390241532
3360,2.435565166
3361,2.396633114
3362,2.415124985
3363,2.412297683
3364,2.399011125
3365,2.392336259
3366,2.389390944
3367,2.421583411
3368,2.420222295
3369,2.393952326
3370,2.392360056
3371,2.405916268
3372,2.397016737
3373,2.405305977
3374,2.392460369
3375,2.385088442
3376,2.413826395
3377,2.425343456
3378,2.39847844
3379,2.390950981
3380,2.392555849
3381,2.392211141
3382,2.39254169
3383,2.421937384
3384,2.407241868
3385,2.408390689
3386,2.382228152
3387,2.407140027
3388,2.407873064
3389,2.399840441
3390,2.416288723
3391,2.410697936
3392,2.422025702
3393,2.416017722
3394,2.378840244
3395,2.389402792
3396,2.41624829
3397,2.41527219
3398,2.410270891
3399,2.393422405
3400,2.402728027
3401,2.428102281
3402,2.4125507
3403,2.400256763
3404,2.390560858
3405,2.399084707
3406,2.367381445
3407,2.370341683
3408,2.389734461
3409,2.408642231
3410,2.387489505
3411,2.395714635
3412,2.411280852
3413,2.396304199
3414,2.392237612
3415,2.401373398
3416,2.39569177
3417,2.376214712
3418,2.392024699
3419,2.42675538
3420,2.422649043
3421,2.405466898
3422,2.368607712
3423,2.40114692
3424,2.397946689
3425,2.386949945
3426,2.411029279
3427,2.413017722
3428,2.394758141
3429,2.415616744
3430,2.413556398
3431,2.411678347
3432,2.415694831
3433,2.385571218
3434,2.413323184
3435,2.391516175
3436,2.396252222
3437,2.397399244
3438,2.395510007
3439,2.406528855
3440,2.401852368
3441,2.397128058
3442,2.41299196
3443,2.393904636
3444,2.398449311
3445,2.382397896
3446,2.413795655
3447,2.424869397
3448,2.389544845
3449,2.399386721
3450,2.398902396
3451,2.395293294
3452,2.435461569
3453,2.382394582
3454,2.394004113
3455,2.396202138
3456,2.452635801
3457,2.373668982
3458,2.399040758
3459,2.385445254
3460,2.381148758
3461,2.401939325
3462,2.422865508
3463,2.402341245
3464,2.405015645
3465,2.418718894
3466,2.394671164
3467,2.396670351
3468,2.402225646
3469,2.401987918
3470,2.380401915
3471,2.388366872
3472,2.409666605
3473,2.396871312
3474,2.396602557
3475,2.421273286
3476,2.401796579
3477,2.426461747
3478,2.424220824
3479,2.388355499
3480,2.396841181
3481,2.398653446
3482,2.402829708
3483,2.377267398
3484,2.405465565
3485,2.399224643
3486,2.39231901
3487,2.372409662
3488,2.419009169
3489,2.388254543
3490,2.394058414
3491,2.421101455
3492,2.410039366
3493,2.393851481
3494,2.404454411
3495,2.388732527
3496,2.417280163
3497,2.380235456
3498,2.383542196
3499,2.406444123
3500,2.378323132
3501,2.399465034
3502,2.384135502
3503,2.387204292
3504,2.408801653
3505,2.409757204
3506,2.399315952
3507,2.410750511
3508,2.379877271
3509,2.415483731
3510,2.394469379
3511,2.407059049
3512,2.396219064
3513,2.400242944
3514,2.395723537
3515,2.40074281
3516,2.401333644
3517,2.385180454
3518,2.385987473
3519,2.416409697
3520,2.379214136
3521,2.394661559
3522,2.398000948
3523,2.411265095
3524,2.40091524
3525,2.386214609
3526,2.394799453
3527,2.389704655
3528,2.374526719
3529,2.413841822
3530,2.406205665
3531,2.424731089
3532,2.400635704
3533,2.430830144
3534,2.399049299
3535,2.391442716
3536,2.385203229
3537,2.408364304
3538,2.393494921
3539,2.362373347
3540,2.398162024
3541,2.398533888
3542,2.405042798
3543,2.402600669
3544,2.411285123
3545,2.399555639
3546,2.405820892
3547,2.377715395
3548,2.427993331
3549,2.407226678
3550,2.407283282
3551,2.396502182
3552,2.429836234
3553,2.386492725
3554,2.381828323
3555,2.402065816
3556,2.389067524
3557,2.410149837
3558,2.376135775
3559,2.39555546
3560,2.420898053
3561,2.374637588
3562,2.384409481
3563,2.423811781
3564,2.389156674
3565,2.424680381
3566,2.405551022
3567,2.403816372
3568,2.391695523
3569,2.407295448
3570,2.382948156
3571,2.415842062
3572,2.379829361
3573,2.410506601
3574,2.391244309
3575,2.395227105
3576,2.409562891
3577,2.409262972
3578,2.38714784
3579,2.407726472
3580,2.398398872
3581,2.409363341
3582,2.419587443
3583,2.392208445
3584,2.3951848
3585,2.389375751
3586,2.398490291
3587,2.42757299
3588,2.415746535
3589,2.390520986
3590,2.422565029
3591,2.38736512
3592,2.383671175
3593,2.401694805
3594,2.39924693
3595,2.378684795
3596,2.420136669
3597,2.420799453
3598,2.404227238
3599,2.397470937
3600,2.419819162
3601,2.400174304
3602,2.392213119
3603,2.400554292
3604,2.405792703
3605,2.409620835
3606,2.413587975
3607,2.372150855
3608,2.397685542
3609,2.410642493
3610,2.393807566
3611,2.409931725
3612,2.386909136
3613,2.420826447
3614,2.410666149
3615,2.375175923
3616,2.401960996
3617,2.394177589
3618,2.399902578
3619,2.396311799
3620,2.411423446
3621,2.406095115
3622,2.407969494
3623,2.374539383
3624,2.390313238
3625,2.395429429
3626,2.405582434
3627,2.424038691
3628,2.403504091
3629,2.38912416
3630,2.403564012
3631,2.395055507
3632,2.417011781
3633,2.397960886
3634,2.373293078
3635,2.3933894
3636,2.389957877
3637,2.407157662
3638,2.391130849
3639,2.420472491
3640,2.400370887
3641,2.383485996
3642,2.386304806
3643,2.374323267
3644,2.388581691
3645,2.398895492
3646,2.395873756
3647,2.409112469
3648,2.410076429
3649,2.403076896
3650,2.402913787
3651,2.391007136
3652,2.3805905
3653,2.403412005
3654,2.393936979
3655,2.40987795
3656,2.397783465
3657,2.409743842
3658,2.405236535
3659,2.415886272
3660,2.378549115
3661,2.409031468
3662,2.399243053
3663,2.397831722
3664,2.400470608
3665,2.403632413
3666,2.391566779
3667,2.41741174
3668,2.420434808
3669,2.396045765
3670,2.408064715
3671,2.396143132
3672,2.4114391
3673,2.392461646
3674,2.411879586
3675,2.417649049
3676,2.394406881
3677,2.410548393
3678,2.395271804
3679,2.411399436
3680,2.400282372
3681,2.42658396
3682,2.391893539
3683,2.402967528
3684,2.399902324
3685,2.428266538
3686,2.403201335
3687,2.418011993
3688,2.37674934
3689,2.375151153
3690,2.40673578
3691,2.427528926
3692,2.420351796
3693,2.397466158
3694,2.393789827
3695,2.358900304
3696,2.399668004
3697,2.39552907
3698,2.428764695
3699,2.383427668
3700,2.394851459
3701,2.414820139
3702,2.401946851
3703,2.415450219
3704,2.415628026
3705,2.409996954
3706,2.384832623
3707,2.416967806
3708,2.392356185
3709,2.407694719
3710,2.405884142
3711,2.391868329
3712,2.400165297
3713,2.41447797
3714,2.410673611
3715,2.400924533
3716,2.430169814
3717,2.388432867
3718,2.383479178
3719,2.405966962
3720,2.398197246
3721,2.40758715
3722,2.435030922
3723,2.385663722
3724,2.402233718
3725,2.381258363
3726,2.390160235
3727,2.418777708
3728,2.386287988
3729,2.396459517
3730,2.379536869
3731,2.395315397
3732,2.404976958
3733,2.387135906
3734,2.390243255
3735,2.419593833
3736,2.382498913
3737,2.39589329
3738,2.401418913
3739,2.430230854
3740,2.397527443
3741,2.41085381
3742,2.403813993
3743,2.408465633
3744,2.380734175
3745,2.384427813
3746,2.426394417
3747,2.40901457
3748,2.386159379
3749,2.395546719
3750,2.388857646
3751,2.432644677
3752,2.403393785
3753,2.4186976
3754,2.364388966
3755,2.406276215
3756,2.409315556
3757,2.388948633
3758,2.411743051
3759,2.400535467
3760,2.405237084
3761,2.386902548
3762,2.413123473
3763,2.387025094
3764,2.391537876
3765,2.377625821
3766,2.424304335
3767,2.417325897
3768,2.391064105
3769,2.401854117
3770,2.384031756
3771,2.411440678
3772,2.399907901
3773,2.413552273
3774,2.378139403
3775,2.385995637
3776,2.388217019
3777,2.417700516
3778,2.392813377
3779,2.403634967
3780,2.380098861
3781,2.381744608
3782,2.397921615
3783,2.384430225
3784,2.392653468
3785,2.378637832
3786,2.425809548
3787,2.397951481
3788,2.411720375
3789,2.39265154
3790,2.40316284
3791,2.40066616
3792,2.386389263
3793,2.394024551
3794,2.396913073
3795,2.387637272
3796,2.414320966
3797,2.390838232
3798,2.39954582
3799,2.404401196
3800,2.370790895
3801,2.377890916
3802,2.402513029
3803,2.396091643
3804,2.397025328
3805,2.398163423
3806,2.405642182
3807,2.406945228
3808,2.434518096
3809,2.393986101
3810,2.419033187
3811,2.398449771
3812,2.390796204
3813,2.389048961
3814,2.396754061
3815,2.412551292
3816,2.381159136
3817,2.419270779
3818,2.381181875
3819,2.385706867
3820,2.378142047
3821,2.398663838
3822,2.413785138
3823,2.429081418
3824,2.406537673
3825,2.415777625
3826,2.394082754
3827,2.402898095
3828,2.384459472
3829,2.398769057
3830,2.412717488
3831,2.391704469
3832,2.404631566
3833,2.406323677
3834,2.377208833
3835,2.380108088
3836,2.396716415
3837,2.421995465
3838,2.404974327
3839,2.405627143
3840,2.400215717
3841,2.392033365
3842,2.392897703
3843,2.409862761
3844,2.390234932
3845,2.4331708
3846,2.435385059
3847,2.388338502
3848,2.386242968
3849,2.387796281
3850,2.406823921
3851,2.380735378
3852,2.384393277
3853,2.376767037
3854,2.387102139
3855,2.381255668
3856,2.419884884
3857,2.414294163
3858,2.386764414
3859,2.408219337
3860,2.381284863
3861,2.425283998
3862,2.416105985
3863,2.411174821
3864,2.403067562
3865,2.426704532
3866,2.427525412
3867,2.380101351
3868,2.386114534
3869,2.392695054
3870,2.406195748
3871,2.391294458
3872,2.359678584
3873,2.38376898
3874,2.385978231
3875,2.408062458
3876,2.409299086
3877,2.424759663
3878,2.4052869
3879,2.407356993
3880,2.395220106
3881,2.421868065
3882,2.389788093
3883,2.392567087
3884,2.409768604
3885,2.410331238
3886,2.407720234
3887,2.409374359
3888,2.421574335
3889,2.380536432
3890,2.393278335
3891,2.396075086
3892,2.404116214
3893,2.377986351
3894,2.386165194
3895,2.419404493
3896,2.392096456
3897,2.427418344
3898,2.413065763
3899,2.380851425
3900,2.399189623
3901,2.386006141
3902,2.392881565
3903,2.406516248
3904,2.412674985
3905,2.376085665
3906,2.391540473
3907,2.39915917
3908,2.413955031
3909,2.405097488
3910,2.404203233
3911,2.40146645
3912,2.395540842
3913,2.404169007
3914,2.412526208
3915,2.37238426
3916,2.419972493
3917,2.403410592
3918,2.401100205
3919,2.416846506
3920,2.391958147
3921,2.381878183
3922,2.390377181
3923,2.385882973
3924,2.398195405
3925,2.410182667
3926,2.41881781
3927,2.413570602
3928,2.382659252
3929,2.377412794
3930,2.40854651
3931,2.398303462
3932,2.370158548
3933,2.38848076
3934,2.398367995
3935,2.386068115
3936,2.406098721
3937,2.408833759
3938,2.407354917
3939,2.375825277
3940,2.39685508
3941,2.386974559
3942,2.397003021
3943,2.40243568
3944,2.399375184
3945,2.395458084
3946,2.394405636
3947,2.400520259
3948,2.40957533
3949,2.376416557
3950,2.39817265
3951,2.398857866
3952,2.415318169
3953,2.406143916
3954,2.400603473
3955,2.420888158
3956,2.437505881
3957,2.410030749
3958,2.397643767
3959,2.382821179
3960,2.387591638
3961,2.395959658
3962,2.379645745
3963,2.415607168
3964,2.416372319
3965,2.397908855
3966,2.37065011
3967,2.395439688
3968,2.398252137
3969,2.391662228
3970,2.415873523
3971,2.389497905
3972,2.388276485
3973,2.422843431
3974,2.385755845
3975,2.401225234
3976,2.417642637
3977,2.402561841
3978,2.416367532
3979,2.389784427
3980,2.417536276
3981,2.397501942
3982,2.382405959
3983,2.430283523
3984,2.394492732
3985,2.418494298
3986,2.393639822
3987,2.378966367
3988,2.427542014
3989,2.407900558
3990,2.394919858
3991,2.398741997
3992,2.366560886
3993,2.37197863
3994,2.395909067
3995,2.406355626
3996,2.383653166
3997,2.394149653
3998,2.397014429
3999,2.38920809
4000,2.401892065
