Wavenumber (cm⁻¹),Intensity
200.0,162.27197257830323
201.00097751710655,160.70303458551228
202.0019550342131,158.64167006135386
203.00293255131965,155.8628594400962
204.0039100684262,154.41915212268825
205.00488758553274,152.76839087348586
206.0058651026393,150.26026090290466
207.00684261974584,148.0556540235038
208.0078201368524,145.72014827129922
209.00879765395894,143.04505967611158
210.00977517106548,140.55090584115644
211.01075268817203,138.74124729041625
212.01173020527858,136.57868988059937
213.01270772238513,133.32813777570468
214.01368523949168,131.4071227710187
215.01466275659823,130.8755253315012
216.01564027370478,128.01834036995638
217.01661779081132,126.5765154739478
218.01759530791787,125.87075457513896
219.01857282502445,125.20859155249627
220.019550342131,124.64853079918967
221.02052785923755,125.14796240695492
222.0215053763441,124.1887898236434
223.02248289345064,123.00710028200183
224.0234604105572,122.57814303417173
225.02443792766374,122.45098027377777
226.0254154447703,122.72746731132916
227.02639296187684,124.13886537959233
228.02737047898339,125.43913926671216
229.02834799608993,125.27084340303692
230.02932551319648,125.32296103009743
231.03030303030303,126.07478245038521
232.03128054740958,126.78057234833024
233.03225806451613,127.59206700390095
234.03323558162268,129.77340827500058
235.03421309872923,131.2576973572163
236.03519061583577,132.4225577609201
237.03616813294232,134.08182400748356
238.03714565004887,136.5773272041125
239.03812316715542,137.76536680687678
240.03910068426197,139.67679260540038
241.04007820136852,142.08003760813057
242.04105571847506,144.69217378812513
243.0420332355816,147.31390069910415
244.0430107526882,147.67698493106994
245.04398826979474,149.1220257220214
246.0449657869013,151.4068239127606
247.04594330400784,153.39288647050228
248.04692082111438,156.18788098440294
249.04789833822093,157.14179448807658
250.04887585532748,158.6679007376899
251.04985337243403,161.0146552682211
252.05083088954058,162.40579370124962
253.05180840664713,162.8457457072684
254.05278592375367,163.69190399024066
255.05376344086022,164.43612947855817
256.05474095796677,164.71498749946016
257.0557184750733,165.65165166965645
258.05669599217987,168.01602379026426
259.0576735092864,168.83675112122492
260.05865102639297,169.15424953584662
261.0596285434995,171.40871325147006
262.06060606060606,172.47913228991848
263.0615835777126,173.7752317062194
264.06256109481916,175.1926003875396
265.0635386119257,177.23407551211167
266.06451612903226,181.20652089749936
267.0654936461388,182.7128162702562
268.06647116324535,184.33979057339764
269.0674486803519,187.51284744444757
270.06842619745845,191.45918018525586
271.069403714565,193.45099523336222
272.07038123167155,195.43279017528405
273.0713587487781,197.4100331368363
274.07233626588464,199.33588474341346
275.0733137829912,201.42245806919894
276.07429130009774,203.36091682675757
277.0752688172043,206.3383996837312
278.07624633431084,208.47828717122852
279.0772238514174,209.16952551727195
280.07820136852393,211.010227943688
281.0791788856305,212.38918941313085
282.08015640273703,212.46141000419112
283.0811339198436,212.39742074282782
284.08211143695013,213.2330860120769
285.0830889540567,213.12295318013423
286.0840664711632,211.6588380152571
287.0850439882698,208.47995623699296
288.0860215053764,204.86190020898695
289.0869990224829,202.33445081870332
290.0879765395895,197.13448384487216
291.088954056696,192.3776375165629
292.0899315738026,188.67669613618148
293.0909090909091,185.07362352774788
294.09188660801567,180.11237327274387
295.0928641251222,174.54268621727223
296.09384164222877,169.42559036455236
297.0948191593353,164.42595406468476
298.09579667644186,158.8951744230753
299.0967741935484,153.2775343356684
300.09775171065496,149.55208697258223
301.0987292277615,145.86302934512025
302.09970674486806,141.88030384528577
303.1006842619746,138.6212737802782
304.10166177908116,135.52748051456882
305.1026392961877,132.82654282893563
306.10361681329425,130.63569744918925
307.1045943304008,128.74362886077697
308.10557184750735,126.86108095855066
309.1065493646139,125.75375745594529
310.10752688172045,123.77439869995493
311.108504398827,122.12385574171164
312.10948191593354,121.44634702475705
313.1104594330401,119.86080750364997
314.11143695014664,118.73467982543382
315.1124144672532,118.74597763353266
316.11339198435974,118.37800527820711
317.1143695014663,116.75486916015647
318.11534701857283,116.79608304262287
319.1163245356794,117.13359858863237
320.11730205278593,116.83665439636341
321.1182795698925,116.01333638427757
322.119257086999,115.3447366476658
323.1202346041056,115.27176854615165
324.1212121212121,114.51666592810493
325.1221896383187,113.81086176675318
326.1231671554252,113.52007853896777
327.12414467253177,113.22176786207216
328.1251221896383,113.12886491593576
329.12609970674487,113.35302230107648
330.1270772238514,113.68791679125854
331.12805474095796,113.94813930304105
332.1290322580645,114.06968116305679
333.13000977517106,114.53071849822396
334.1309872922776,113.99326673084096
335.13196480938416,113.32212760996154
336.1329423264907,113.32860473276807
337.13391984359725,112.52918242454251
338.1348973607038,111.94352112148646
339.13587487781035,111.90079655010658
340.1368523949169,111.87377657821567
341.13782991202345,111.43277196521085
342.13880742913,111.65192115871362
343.13978494623655,110.09705083605996
344.1407624633431,109.26765296287442
345.14173998044964,109.73226560907872
346.1427174975562,109.72705009672778
347.14369501466274,108.27111911328795
348.1446725317693,107.28880134824772
349.14565004887584,107.03942011477159
350.1466275659824,106.59122121510184
351.14760508308893,106.21891537408735
352.1485826001955,105.85010448003331
353.14956011730203,105.56079299825241
354.1505376344086,105.21053386104255
355.1515151515151,104.90634448215825
356.1524926686217,104.52989016320947
357.1534701857282,104.09950124551331
358.1544477028348,103.79392288186887
359.1554252199413,103.49291981506862
360.15640273704787,103.03343522961923
361.1573802541544,102.49408074891477
362.15835777126097,102.73295442823765
363.1593352883675,102.90431159024722
364.16031280547406,102.70496158813987
365.1612903225806,102.5582731925514
366.16226783968716,103.19005257438513
367.1632453567937,102.4207379405392
368.16422287390026,102.85834740769397
369.1652003910068,103.41841564436953
370.16617790811335,103.08789502031979
371.1671554252199,103.68938996861847
372.16813294232645,103.3429417960848
373.169110459433,103.35382148615446
374.17008797653955,103.79738827624254
375.1710654936461,104.09462080562332
376.1720430107527,104.08008276826519
377.17302052785925,105.04708799643059
378.1739980449658,105.31567272923951
379.17497556207235,105.71423698571117
380.1759530791789,107.29462131717239
381.17693059628544,107.96881333496762
382.177908113392,108.73225665243886
383.17888563049854,109.79062795903674
384.1798631476051,110.82484412259981
385.18084066471164,111.66069670024613
386.1818181818182,112.89337869612761
387.18279569892474,114.89788416091783
388.1837732160313,116.82208405444733
389.18475073313783,118.35713321640428
390.1857282502444,119.88500091269398
391.18670576735093,121.90024365983538
392.1876832844575,123.04056971237644
393.188660801564,125.52980945726004
394.1896383186706,128.13517368005282
395.1906158357771,129.24827724422906
396.1915933528837,131.61559294979222
397.1925708699902,132.6842813435761
398.19354838709677,134.0458477333708
399.1945259042033,135.66094141089724
400.19550342130987,136.88418376699124
401.1964809384164,138.82616548659
402.19745845552296,141.28775549251674
403.1984359726295,143.6257246852977
404.19941348973606,145.35624328314358
405.2003910068426,146.52766343650077
406.20136852394916,148.0134069994969
407.2023460410557,148.15712789372023
408.20332355816225,147.19587798520365
409.20430107526886,145.98784197808422
410.2052785923754,145.26673128914274
411.20625610948196,144.8679837601175
412.2072336265885,142.03186625550512
413.20821114369505,138.75894248380152
414.2091886608016,136.1963208066776
415.21016617790815,133.80628830740702
416.2111436950147,130.77477690205313
417.21212121212125,129.0401634666515
418.2130987292278,127.04180553123412
419.21407624633434,125.67328607044205
420.2150537634409,125.15500584695536
421.21603128054744,122.7251506594742
422.217008797654,121.32796117134164
423.21798631476054,120.3941097604708
424.2189638318671,119.19901608659401
425.21994134897363,117.6765185272643
426.2209188660802,116.52753442893919
427.22189638318673,115.32020117504814
428.2228739002933,113.90641704614643
429.2238514173998,113.02194343685768
430.2248289345064,112.87446226037957
431.2258064516129,112.74320607356256
432.2267839687195,112.08610718672765
433.227761485826,110.71935556116408
434.22873900293257,109.976941114479
435.2297165200391,110.2051903234728
436.23069403714567,110.24014232006314
437.2316715542522,109.96356965244311
438.23264907135876,111.04856800072108
439.2336265884653,111.4508909781112
440.23460410557186,111.02576867547343
441.2355816226784,111.44343962054656
442.23655913978496,111.08765036388738
443.2375366568915,111.37611650331121
444.23851417399806,111.69143324795012
445.2394916911046,112.05737028277031
446.24046920821115,112.89615434569312
447.2414467253177,113.13329183977964
448.24242424242425,114.26682000213714
449.2434017595308,116.0888504886065
450.24437927663735,117.38018761646786
451.2453567937439,117.53031142596271
452.24633431085044,118.64649889230951
453.247311827957,120.71669137866816
454.24828934506354,122.77453956211616
455.2492668621701,125.10998534217059
456.25024437927664,127.58541614273902
457.2512218963832,128.97974667244821
458.25219941348973,131.77801311612612
459.2531769305963,135.934675220864
460.25415444770283,139.75692226820865
461.2551319648094,143.08560604302647
462.2561094819159,147.77020998004193
463.2570869990225,154.51944580996744
464.258064516129,159.94501918019944
465.2590420332356,166.48432813629177
466.2600195503421,174.0408259306435
467.26099706744867,180.28855670274407
468.2619745845552,187.6977181661648
469.26295210166177,194.91183155715578
470.2639296187683,204.03681106759825
471.26490713587486,214.46042644200998
472.2658846529814,224.06021761860538
473.26686217008796,232.50175201102704
474.2678396871945,240.95178155308446
475.26881720430106,249.5871243863649
476.2697947214076,258.32776240969224
477.27077223851416,266.33295516135917
478.2717497556207,272.0489648731122
479.27272727272725,276.27334930700897
480.2737047898338,279.34902751564687
481.27468230694035,280.78335369235236
482.2756598240469,279.06475373728466
483.27663734115345,273.91002178525207
484.27761485826,270.87579578367945
485.27859237536654,265.92429157066397
486.2795698924731,259.65888083407503
487.28054740957964,254.24334884477193
488.2815249266862,251.00152261294528
489.2825024437928,247.3865860060953
490.28347996089934,245.44772699429404
491.2844574780059,245.25524307018233
492.28543499511244,247.67713070569596
493.286412512219,252.72861005366536
494.28739002932554,259.02572457388015
495.2883675464321,270.8994919909495
496.28934506353863,282.7548317369248
497.2903225806452,295.1254825983103
498.29130009775173,309.85525079763664
499.2922776148583,326.58832113160435
500.2932551319648,344.1080776858509
501.2942326490714,361.2366615154093
502.2952101661779,376.58096503753245
503.2961876832845,392.08485660268025
504.297165200391,409.23404020801013
505.29814271749757,421.6675716462253
506.2991202346041,430.6228828667469
507.30009775171067,435.8647546275969
508.3010752688172,438.0920315992087
509.30205278592376,437.6515341963708
510.3030303030303,433.8760969345046
511.30400782013686,427.30378069946084
512.3049853372434,414.48510353110623
513.3059628543499,397.9391616427036
514.3069403714564,378.9724525761871
515.307917888563,357.6265047289452
516.3088954056695,336.83589912053935
517.3098729227761,313.7945048886814
518.3108504398826,292.3396606053925
519.3118279569892,272.64141134887086
520.3128054740957,253.62169288945097
521.3137829912023,236.69373551319129
522.3147605083088,222.88753186482816
523.3157380254154,210.7275894247094
524.3167155425219,199.6909755539828
525.3176930596285,189.55898041741915
526.318670576735,180.21523421094997
527.3196480938416,171.7111482796353
528.3206256109481,164.0353826334489
529.3216031280547,157.29204114335275
530.3225806451612,150.92426315007873
531.3235581622678,144.88499888815318
532.3245356793743,140.24871369466823
533.3255131964809,137.13525668277504
534.3264907135874,133.7969346411505
535.327468230694,129.88458919647968
536.3284457478005,126.94573243929656
537.3294232649071,126.30972089459549
538.3304007820136,124.98908141561765
539.3313782991202,123.0130154422156
540.3323558162267,121.80088632723044
541.3333333333333,120.94378453986043
542.3343108504398,119.85049311668593
543.3352883675464,119.30608719527612
544.3362658846529,119.72185536824367
545.3372434017595,120.39739005815827
546.338220918866,119.87610061700586
547.3391984359725,119.12391173910653
548.3401759530791,119.6756314837152
549.3411534701856,120.15851104620685
550.3421309872922,120.22183245746098
551.3431085043987,120.87614385730551
552.3440860215054,121.00341721857554
553.345063538612,120.78398368649232
554.3460410557185,122.50461857671809
555.347018572825,122.71069160894531
556.3479960899316,123.12733281777516
557.3489736070381,123.27330439779288
558.3499511241447,123.41366408023063
559.3509286412512,124.55275495770645
560.3519061583578,126.4861403445702
561.3528836754643,127.07526511324376
562.3538611925709,127.85413879453611
563.3548387096774,128.77222455386715
564.355816226784,129.380646291528
565.3567937438905,129.65840573012377
566.3577712609971,129.92192636613643
567.3587487781036,129.00106191927102
568.3597262952102,127.20380425174318
569.3607038123167,125.2705586839347
570.3616813294233,123.50185597484773
571.3626588465298,121.46741513728117
572.3636363636364,119.27210599649256
573.3646138807429,117.83712935663718
574.3655913978495,114.90443099633526
575.366568914956,112.60960936421239
576.3675464320626,112.72112798249672
577.3685239491691,110.01525990565885
578.3695014662757,108.40355382785849
579.3704789833822,108.03536465361388
580.3714565004888,106.47263100606816
581.3724340175953,103.83830640599142
582.3734115347019,102.69859709323471
583.3743890518084,102.07837526486334
584.375366568915,101.81472643146644
585.3763440860215,101.0691760006779
586.377321603128,100.48824998859462
587.3782991202346,100.40234471000224
588.3792766373411,99.9498805504064
589.3802541544477,98.6380774094134
590.3812316715542,98.5190860329716
591.3822091886608,98.26423735001822
592.3831867057673,97.68712634381437
593.3841642228739,97.45938055363845
594.3851417399804,97.98761546363733
595.386119257087,97.90317999688216
596.3870967741935,97.51226705160889
597.3880742913001,97.05662880785695
598.3890518084066,96.89385140571501
599.3900293255132,97.17787982745939
600.3910068426197,97.34129264844482
601.3919843597263,96.17710074564363
602.3929618768328,96.43651498645649
603.3939393939394,96.61858915502255
604.3949169110459,96.0959590876953
605.3958944281525,95.8127756114409
606.396871945259,96.06443555174363
607.3978494623656,96.04815678949399
608.3988269794721,96.0546181107581
609.3998044965787,95.70275517431782
610.4007820136852,95.44178059618811
611.4017595307918,96.23845270862871
612.4027370478983,97.26256788675033
613.4037145650049,97.1588151270823
614.4046920821114,97.40465394460087
615.405669599218,97.51499459655268
616.4066471163245,97.1973139389357
617.4076246334312,97.24177817471949
618.4086021505377,97.44402021534368
619.4095796676443,97.8129781422552
620.4105571847508,97.55405468415
621.4115347018574,97.54633785148151
622.4125122189639,97.90359120929466
623.4134897360705,97.47194200591134
624.414467253177,98.00754157016983
625.4154447702836,98.05539545350324
626.4164222873901,97.89442548359723
627.4173998044967,98.36716379230424
628.4183773216032,99.21975115999714
629.4193548387098,99.18602093843467
630.4203323558163,98.88052701825048
631.4213098729228,98.32446347529331
632.4222873900294,99.04605280826016
633.423264907136,99.97762078302547
634.4242424242425,99.80491714047756
635.425219941349,99.18034421743576
636.4261974584556,98.62904479610118
637.4271749755621,98.34536362645464
638.4281524926687,98.831312747182
639.4291300097752,99.08702559618708
640.4301075268818,98.57208771742353
641.4310850439883,98.47976695400925
642.4320625610949,98.88937213868213
643.4330400782014,98.60221060176
644.434017595308,98.73886674473425
645.4349951124145,99.07768974569754
646.4359726295211,99.01791215473075
647.4369501466276,98.82910257852268
648.4379276637342,98.93713164800342
649.4389051808407,98.76699527353345
650.4398826979473,98.96565879439423
651.4408602150538,99.2157403391524
652.4418377321604,98.87661524284938
653.4428152492669,98.26144182988283
654.4437927663735,98.31580638002565
655.44477028348,98.69935359119833
656.4457478005866,98.80312865831216
657.4467253176931,98.73347946638637
658.4477028347997,98.7431418662588
659.4486803519062,98.89962186216098
660.4496578690128,99.29348683112718
661.4506353861193,99.2668963861957
662.4516129032259,98.93822606653684
663.4525904203324,98.58217671602102
664.453567937439,98.65380960760427
665.4545454545455,99.10333612830232
666.455522971652,98.64556031061156
667.4565004887586,99.13703251350047
668.4574780058651,98.79133281434292
669.4584555229717,99.09372150828608
670.4594330400782,99.9096154215466
671.4604105571848,99.64865949238455
672.4613880742913,100.35479692746158
673.4623655913979,100.8752104828675
674.4633431085044,100.78214949296242
675.464320625611,100.93691183294496
676.4652981427175,101.09578296142273
677.4662756598241,100.91333259195324
678.4672531769306,101.82584728413065
679.4682306940372,101.77438075507621
680.4692082111437,101.95348460012131
681.4701857282503,102.01535802720787
682.4711632453568,102.22133714648125
683.4721407624634,102.5871474761262
684.4731182795699,101.93722189368646
685.4740957966765,102.29611357684276
686.475073313783,102.14320612186057
687.4760508308896,101.98016742386224
688.4770283479961,101.58161561010267
689.4780058651027,101.35224812188366
690.4789833822092,102.3650288814029
691.4799608993158,101.92629651202186
692.4809384164223,101.51893680981482
693.4819159335289,101.5176054186403
694.4828934506354,101.92988288878712
695.483870967742,102.5466363617507
696.4848484848485,102.8988756130362
697.485826001955,102.3676488579274
698.4868035190616,102.53179170454776
699.4877810361681,103.33991218767763
700.4887585532747,103.74143492110417
701.4897360703812,103.59833550211957
702.4907135874878,103.81612119196666
703.4916911045943,104.6429323160951
704.4926686217009,105.17228448777071
705.4936461388074,104.98253913797224
706.494623655914,104.41358641695271
707.4956011730205,104.61422562737194
708.4965786901271,105.47547443313233
709.4975562072336,105.65338296403782
710.4985337243402,106.93626748773237
711.4995112414467,105.65543593347613
712.5004887585533,106.16240391748796
713.5014662756598,106.91914282583346
714.5024437927664,106.42963214616
715.5034213098729,106.10076298348277
716.5043988269795,106.20963420963149
717.505376344086,107.37363418667879
718.5063538611926,107.65749502860992
719.5073313782991,107.41190520176573
720.5083088954057,107.58866978890211
721.5092864125122,108.01507112377573
722.5102639296188,107.64349418003226
723.5112414467253,107.08407441713439
724.5122189638319,106.80742745407788
725.5131964809384,107.7489489063305
726.514173998045,108.54684337497463
727.5151515151515,108.43646636181353
728.516129032258,108.47580312543909
729.5171065493646,109.0799756124993
730.5180840664711,109.40268469089797
731.5190615835777,109.01081508344787
732.5200391006842,109.40859270430781
733.5210166177908,110.52684007696448
734.5219941348973,111.31653578752778
735.5229716520039,111.59529111260342
736.5239491691104,112.80511755124766
737.524926686217,112.6158512240254
738.5259042033235,112.6793366286931
739.5268817204301,113.21900550570643
740.5278592375366,113.86869338633944
741.5288367546432,114.72460945057531
