Wavenumber (cm⁻¹),Intensity
200.0,774.6306048537648
201.00097751710655,766.6919350426601
202.0019550342131,759.274305163829
203.00293255131965,750.7479700027557
204.0039100684262,742.3045722879881
205.00488758553274,738.4061569240997
206.0058651026393,734.2211748560945
207.00684261974584,727.9282516417969
208.0078201368524,719.9418946964475
209.00879765395894,712.4311272008886
210.00977517106548,706.4357587406896
211.01075268817203,699.5696593452036
212.01173020527858,689.4551640235992
213.01270772238513,675.9574381537375
214.01368523949168,666.8498620756413
215.01466275659823,655.9857059014785
216.01564027370478,644.0413760917402
217.01661779081132,634.4542044026796
218.01759530791787,628.8376208445943
219.01857282502445,627.0474115352291
220.019550342131,625.9903786511765
221.02052785923755,623.4837759450497
222.0215053763441,618.7712695258738
223.02248289345064,614.6896756492398
224.0234604105572,608.3682140824509
225.02443792766374,600.4245894605735
226.0254154447703,593.1313416139839
227.02639296187684,589.1336669428897
228.02737047898339,588.5277834322
229.02834799608993,585.3208703803396
230.02932551319648,581.4635868715864
231.03030303030303,583.6819834552493
232.03128054740958,584.6102400353577
233.03225806451613,589.9653881947929
234.03323558162268,597.0582797775211
235.03421309872923,602.1531972800652
236.03519061583577,605.1526293855511
237.03616813294232,613.8509466041265
238.03714565004887,624.5728016570546
239.03812316715542,635.65932677819
240.03910068426197,648.1371518899373
241.04007820136852,661.90943899101
242.04105571847506,673.6298926817605
243.0420332355816,684.034207061238
244.0430107526882,695.2594471224685
245.04398826979474,709.3362259715409
246.0449657869013,720.9878088348204
247.04594330400784,727.2003004704492
248.04692082111438,730.7143898833062
249.04789833822093,735.714908507055
250.04887585532748,736.0372519850531
251.04985337243403,739.2909134894928
252.05083088954058,743.7494285729609
253.05180840664713,746.9672089879059
254.05278592375367,749.871310333564
255.05376344086022,751.8648592640175
256.05474095796677,752.4786691825212
257.0557184750733,750.9148322073335
258.05669599217987,746.9145523117235
259.0576735092864,742.5007424665995
260.05865102639297,738.9790928605573
261.0596285434995,735.3813155590877
262.06060606060606,731.8381904992677
263.0615835777126,729.8920225869092
264.06256109481916,727.5539229402847
265.0635386119257,729.4969921895349
266.06451612903226,736.482098556348
267.0654936461388,745.8117423486933
268.06647116324535,753.1897313313394
269.0674486803519,763.2357760752585
270.06842619745845,772.9386383503215
271.069403714565,779.9786161004023
272.07038123167155,784.3918362241242
273.0713587487781,790.203768751489
274.07233626588464,793.1883953437662
275.0733137829912,798.6908932313478
276.07429130009774,807.1758444361919
277.0752688172043,807.7392361460724
278.07624633431084,813.2619428002854
279.0772238514174,817.7623395374139
280.07820136852393,820.8075626307639
281.0791788856305,824.1820814248634
282.08015640273703,822.7279998984973
283.0811339198436,822.0089962199226
284.08211143695013,822.0379020948794
285.0830889540567,817.6890825928758
286.0840664711632,803.5778671978142
287.0850439882698,786.2661823689255
288.0860215053764,772.6042800003562
289.0869990224829,762.2574223962504
290.0879765395895,750.2101330833879
291.088954056696,729.2583523975932
292.0899315738026,702.194432980478
293.0909090909091,678.1726067149399
294.09188660801567,659.0598721779894
295.0928641251222,642.0100438066321
296.09384164222877,625.8571554764981
297.0948191593353,606.4298903765758
298.09579667644186,590.5907319064255
299.0967741935484,579.9763891181722
300.09775171065496,570.5989397791066
301.0987292277615,563.5220282918712
302.09970674486806,555.4482241505726
303.1006842619746,550.6890775714265
304.10166177908116,549.7417777595698
305.1026392961877,545.8207988490601
306.10361681329425,538.8243531706041
307.1045943304008,535.4138059693832
308.10557184750735,534.1023973085736
309.1065493646139,531.3341820808604
310.10752688172045,528.2877102359079
311.108504398827,526.7257715684252
312.10948191593354,524.5854749297581
313.1104594330401,522.9714773125803
314.11143695014664,523.5207968847801
315.1124144672532,521.0855041893966
316.11339198435974,522.5800072378441
317.1143695014663,527.6198490617479
318.11534701857283,532.3019180539018
319.1163245356794,533.801418875671
320.11730205278593,538.3960820600369
321.1182795698925,540.9774622755025
322.119257086999,539.8433873861768
323.1202346041056,536.2760958338428
324.1212121212121,532.6328683684628
325.1221896383187,528.3966760468163
326.1231671554252,522.9504661850252
327.12414467253177,515.0517482333422
328.1251221896383,504.8633374396555
329.12609970674487,497.9291009014813
330.1270772238514,492.4033325861339
331.12805474095796,486.1274438431934
332.1290322580645,483.9715400485777
333.13000977517106,488.70482116850707
334.1309872922776,482.8755995560925
335.13196480938416,478.07982870956187
336.1329423264907,478.46120608676245
337.13391984359725,479.59942623525336
338.1348973607038,474.62511661554015
339.13587487781035,478.30504135142706
340.1368523949169,478.44790679369316
341.13782991202345,476.17164950810877
342.13880742913,475.71879326989296
343.13978494623655,478.38516301686394
344.1407624633431,474.6019890606285
345.14173998044964,473.7682112035707
346.1427174975562,474.78469031807936
347.14369501466274,473.6083597115139
348.1446725317693,471.4567385762193
349.14565004887584,469.7865103623099
350.1466275659824,467.9918086803155
351.14760508308893,467.8377337702861
352.1485826001955,469.70767600174213
353.14956011730203,469.29436919446675
354.1505376344086,467.9343287231266
355.1515151515151,470.1141299007498
356.1524926686217,474.788574515387
357.1534701857282,478.35438606161176
358.1544477028348,480.3528911613881
359.1554252199413,483.2989041728343
360.15640273704787,487.3038891529663
361.1573802541544,490.87120048679174
362.15835777126097,493.3020885770374
363.1593352883675,496.15107498517284
364.16031280547406,504.41643745141505
365.1612903225806,510.76918442834096
366.16226783968716,514.1654878079223
367.1632453567937,518.4086782843589
368.16422287390026,525.4316839093505
369.1652003910068,526.0059697381913
370.16617790811335,525.635669237571
371.1671554252199,525.6060224072835
372.16813294232645,522.2232857602665
373.169110459433,520.1609412291006
374.17008797653955,519.3001308263396
375.1710654936461,517.1494839410425
376.1720430107527,515.0924630889054
377.17302052785925,517.245259710054
378.1739980449658,518.1963339248316
379.17497556207235,519.3813767988281
380.1759530791789,522.4670952272589
381.17693059628544,528.0715381445382
382.177908113392,534.3008881765434
383.17888563049854,535.9495653180945
384.1798631476051,536.8311754873341
385.18084066471164,538.202634811083
386.1818181818182,538.8254624351794
387.18279569892474,538.658936802921
388.1837732160313,545.7455434552576
389.18475073313783,548.9555654906047
390.1857282502444,552.4970714083445
391.18670576735093,560.2527866106112
392.1876832844575,568.8213683599552
393.188660801564,577.4166224831977
394.1896383186706,583.8744639318895
395.1906158357771,590.7543668442866
396.1915933528837,598.1731688600278
397.1925708699902,602.5977558035946
398.19354838709677,606.8248396149908
399.1945259042033,613.9277233283917
400.19550342130987,619.9945792432424
401.1964809384164,623.4153991809416
402.19745845552296,627.2657441339139
403.1984359726295,628.142533634111
404.19941348973606,628.391625473293
405.2003910068426,627.5850054310989
406.20136852394916,626.3254586555074
407.2023460410557,626.3090452089192
408.20332355816225,619.086392667
409.20430107526886,613.8665092801875
410.2052785923754,607.6940699736181
411.20625610948196,598.4247350503737
412.2072336265885,590.5825255720581
413.20821114369505,582.7041093115952
414.2091886608016,574.8986241674986
415.21016617790815,571.0647860472155
416.2111436950147,570.939573726749
417.21212121212125,570.3519479437679
418.2130987292278,572.0686410164435
419.21407624633434,577.9156343773363
420.2150537634409,587.1720518238981
421.21603128054744,596.8514817228229
422.217008797654,604.4646671933825
423.21798631476054,615.8603220254824
424.2189638318671,631.3329769775565
425.21994134897363,643.1976727807413
426.2209188660802,652.1490663386181
427.22189638318673,664.1307096347382
428.2228739002933,669.0918671837715
429.2238514173998,666.7326428737663
430.2248289345064,661.3667700564467
431.2258064516129,654.5357441377554
432.2267839687195,645.7305786853622
433.227761485826,637.0987401188349
434.22873900293257,629.0269696923068
435.2297165200391,621.0494282396195
436.23069403714567,615.0446259000264
437.2316715542522,611.8381194965401
438.23264907135876,606.5295949458857
439.2336265884653,602.4499960443911
440.23460410557186,595.7793701093274
441.2355816226784,589.2260716834052
442.23655913978496,584.981524871474
443.2375366568915,576.4904107382109
444.23851417399806,572.9381898104233
445.2394916911046,569.2000297204535
446.24046920821115,562.1590471491719
447.2414467253177,554.2568610404788
448.24242424242425,553.8716211040083
449.2434017595308,551.2490143355591
450.24437927663735,549.8905958982604
451.2453567937439,549.8025057188502
452.24633431085044,550.826822110561
453.247311827957,554.3703278479234
454.24828934506354,555.521423508303
455.2492668621701,560.9267608482195
456.25024437927664,569.2292363415554
457.2512218963832,575.6151268118282
458.25219941348973,577.7869873050083
459.2531769305963,584.6226936054647
460.25415444770283,587.3151709273922
461.2551319648094,587.2615990614863
462.2561094819159,588.2160096706674
463.2570869990225,590.7573987341143
464.258064516129,591.2189631413816
465.2590420332356,599.3538792050016
466.2600195503421,604.224685560363
467.26099706744867,608.8812507912777
468.2619745845552,620.9902900755554
469.26295210166177,635.706972016226
470.2639296187683,649.7500613650807
471.26490713587486,662.9969654699022
472.2658846529814,675.967172346728
473.26686217008796,688.7786766779136
474.2678396871945,701.8923926181334
475.26881720430106,720.195751893039
476.2697947214076,733.8370136701537
477.27077223851416,746.781134527968
478.2717497556207,767.4751450378276
479.27272727272725,795.8556627972315
480.2737047898338,819.192785069394
481.27468230694035,851.3035610436411
482.2756598240469,888.1009236122388
483.27663734115345,925.1726412600417
484.27761485826,961.3869989332447
485.27859237536654,991.6660131417959
486.2795698924731,1014.6565326918744
487.28054740957964,1024.9801853315266
488.2815249266862,1023.4466576025834
489.2825024437928,1014.1539356623018
490.28347996089934,1001.628329167391
491.2844574780059,992.9641731143256
492.28543499511244,989.8664627564564
493.286412512219,993.316133396116
494.28739002932554,1006.6211607346528
495.2883675464321,1033.9619057195805
496.28934506353863,1074.4377223693277
497.2903225806452,1118.1349287391868
498.29130009775173,1167.6441609659041
499.2922776148583,1228.5134352749271
500.2932551319648,1299.309133649158
501.2942326490714,1361.4179079069813
502.2952101661779,1408.9366332554935
503.2961876832845,1434.668791083244
504.297165200391,1440.24814302671
505.29814271749757,1425.3771214379988
506.2991202346041,1381.065547873095
507.30009775171067,1316.2868557005481
508.3010752688172,1246.3161546393133
509.30205278592376,1176.4441934881672
510.3030303030303,1111.1422966705636
511.30400782013686,1056.3131108319071
512.3049853372434,1008.0818235128469
513.3059628543499,964.7548886308153
514.3069403714564,924.8164251951055
515.307917888563,888.9230753339048
516.3088954056695,855.6149093562867
517.3098729227761,818.2642700043804
518.3108504398826,784.1946582220044
519.3118279569892,753.1620872136485
520.3128054740957,728.3071300635697
521.3137829912023,710.5017627503344
522.3147605083088,696.7420430870532
523.3157380254154,686.3249761117821
524.3167155425219,674.2005184635801
525.3176930596285,662.3261252964239
526.318670576735,652.4298772319219
527.3196480938416,642.9937532932526
528.3206256109481,630.6223536468531
529.3216031280547,619.0732506741548
530.3225806451612,610.202493454062
531.3235581622678,601.3606141422059
532.3245356793743,592.8921187965536
533.3255131964809,588.6779267335323
534.3264907135874,584.1650302633502
535.327468230694,578.9294850147912
536.3284457478005,579.916438037155
537.3294232649071,583.2277107600081
538.3304007820136,582.3279354719078
539.3313782991202,584.7040061213129
540.3323558162267,586.598835284008
541.3333333333333,588.5682581760352
542.3343108504398,594.816315943565
543.3352883675464,605.6077581364556
544.3362658846529,615.5256195675156
545.3372434017595,622.3023788720046
546.338220918866,635.9771469569527
547.3391984359725,649.3982262643087
548.3401759530791,660.6866885258212
549.3411534701856,673.0506379259995
550.3421309872922,686.273519731614
551.3431085043987,703.3189375595266
552.3440860215054,718.5644022611648
553.345063538612,733.0608725214306
554.3460410557185,744.6337973919698
555.347018572825,748.9171965646389
556.3479960899316,755.5268277655404
557.3489736070381,750.5843811588593
558.3499511241447,742.6957800791095
559.3509286412512,733.7048398877046
560.3519061583578,720.4736721337055
561.3528836754643,705.0550314512724
562.3538611925709,692.0688495140892
563.3548387096774,675.4556576208913
564.355816226784,657.8137542304422
565.3567937438905,640.5572970380282
566.3577712609971,624.2449647633979
567.3587487781036,613.249729270199
568.3597262952102,597.3751039992839
569.3607038123167,586.53140074211
570.3616813294233,578.0210912641683
571.3626588465298,567.6969960756771
572.3636363636364,559.212408106579
573.3646138807429,552.6853044128579
574.3655913978495,546.9696768325402
575.366568914956,542.3058422502722
576.3675464320626,538.3495248718096
577.3685239491691,534.8593821039549
578.3695014662757,532.2542677740529
579.3704789833822,527.9152689183616
580.3714565004888,526.6798517263081
581.3724340175953,525.0309150585688
582.3734115347019,523.3734803290394
583.3743890518084,523.8411780047094
584.375366568915,521.095248513742
585.3763440860215,525.7521018709054
586.377321603128,527.0349170801295
587.3782991202346,527.5523618432554
588.3792766373411,530.6412799289035
589.3802541544477,533.7179481411258
590.3812316715542,535.0918980267779
591.3822091886608,536.6815755845383
592.3831867057673,537.7546928930796
593.3841642228739,538.5314710903726
594.3851417399804,539.2767429178267
595.386119257087,539.2731439042655
596.3870967741935,538.4647309158186
597.3880742913001,537.7175623143331
598.3890518084066,537.6281778142547
599.3900293255132,536.0496461318122
600.3910068426197,532.7422576100448
601.3919843597263,532.4892534161406
602.3929618768328,528.2295966809432
603.3939393939394,522.810696974097
604.3949169110459,519.8961787588088
605.3958944281525,516.7959954951489
606.396871945259,510.9286689133339
607.3978494623656,510.2575054865023
608.3988269794721,509.5193209039631
609.3998044965787,506.34836960461166
610.4007820136852,506.196341752184
611.4017595307918,507.3389645026251
612.4027370478983,505.0097337074502
613.4037145650049,506.46094736804224
614.4046920821114,506.2492665798641
615.405669599218,506.1940983357877
616.4066471163245,507.2893785542357
617.4076246334312,508.97242001622914
618.4086021505377,510.4389953295731
619.4095796676443,513.27610040664
620.4105571847508,512.9715983798885
621.4115347018574,513.8885065482496
622.4125122189639,514.9095417445426
623.4134897360705,514.0932053468421
624.414467253177,513.0785256732975
625.4154447702836,514.4718963933046
626.4164222873901,510.9455515111975
627.4173998044967,508.83729012306253
628.4183773216032,506.7478036210103
629.4193548387098,502.78771584800353
630.4203323558163,500.5401166457054
631.4213098729228,501.3916852527321
632.4222873900294,500.810205295381
633.423264907136,499.5191947583432
634.4242424242425,499.00072583960326
635.425219941349,499.0260975194058
636.4261974584556,498.1241877629534
637.4271749755621,495.9203304222747
638.4281524926687,496.7668527527115
639.4291300097752,497.7786934414724
640.4301075268818,498.56125171148636
641.4310850439883,499.8746038631088
642.4320625610949,500.83159673132957
643.4330400782014,500.26395673895746
644.434017595308,497.24752585517535
645.4349951124145,495.36217934843546
646.4359726295211,495.6625536112881
647.4369501466276,496.59355632852606
648.4379276637342,496.4437803373478
649.4389051808407,496.62906233598807
650.4398826979473,493.4829894878891
651.4408602150538,493.24111762205246
652.4418377321604,495.045053045561
653.4428152492669,496.59800324265615
654.4437927663735,499.168575234145
655.44477028348,500.5562310676064
656.4457478005866,499.2815651954446
657.4467253176931,500.97714274237677
658.4477028347997,503.5971478572789
659.4486803519062,505.51478797781704
660.4496578690128,508.8788554797022
661.4506353861193,510.00843823784953
662.4516129032259,511.2475012255657
663.4525904203324,515.5245848308853
664.453567937439,521.2551828295808
665.4545454545455,526.5565818257234
666.455522971652,530.9581837714319
667.4565004887586,532.1178597821768
668.4574780058651,538.8609348451702
669.4584555229717,543.8929462992332
670.4594330400782,549.1473154185535
671.4604105571848,557.041202807488
672.4613880742913,566.0180475628482
673.4623655913979,573.9360490423843
674.4633431085044,581.2078266047674
675.464320625611,590.0628946155256
676.4652981427175,599.624618107096
677.4662756598241,608.1591059380972
678.4672531769306,614.5150338492014
679.4682306940372,618.165233189625
680.4692082111437,620.356711907521
681.4701857282503,619.1873471306598
682.4711632453568,616.3750394939416
683.4721407624634,611.4403303887984
684.4731182795699,604.0776970021387
685.4740957966765,597.1325618268112
686.475073313783,590.9672268176068
687.4760508308896,582.3876893996876
688.4770283479961,574.3514411354647
689.4780058651027,567.4169327766898
690.4789833822092,560.4286467876467
691.4799608993158,553.4353544694388
692.4809384164223,548.7089232493349
693.4819159335289,544.2881330945694
694.4828934506354,538.5123372984314
695.483870967742,532.9875304072906
696.4848484848485,529.9185214132198
697.485826001955,529.1810253712629
698.4868035190616,525.8444832779488
699.4877810361681,525.7170265956821
700.4887585532747,524.3601441340559
701.4897360703812,521.050850774988
702.4907135874878,519.7545913173898
703.4916911045943,521.2459557095129
704.4926686217009,520.184291358919
705.4936461388074,521.578057945722
706.494623655914,520.4695912745091
707.4956011730205,519.3304538309607
708.4965786901271,520.0621356530559
709.4975562072336,521.8234591735652
710.4985337243402,521.8770859297757
711.4995112414467,521.7016636844386
712.5004887585533,520.9063666970608
713.5014662756598,518.761624076301
714.5024437927664,518.196158230984
715.5034213098729,519.1264717882602
716.5043988269795,519.1939658462093
717.505376344086,520.5141443016997
718.5063538611926,523.8266245033386
719.5073313782991,524.2946786265541
720.5083088954057,522.9258391038676
721.5092864125122,522.3495861406891
722.5102639296188,523.2733772011467
723.5112414467253,524.3915892905002
724.5122189638319,526.89038895063
725.5131964809384,527.4812989235554
726.514173998045,529.0354039873614
727.5151515151515,532.5037865041203
728.516129032258,535.9782367428853
729.5171065493646,538.1301315689158
730.5180840664711,541.1310526299388
731.5190615835777,545.6193428147625
732.5200391006842,547.4562451972197
733.5210166177908,551.123515833222
734.5219941348973,556.7875339068261
735.5229716520039,561.8200897777987
736.5239491691104,566.3662031799819
737.524926686217,572.3272151347263
738.5259042033235,576.5456159894507
739.5268817204301,582.9185784696432
740.5278592375366,589.4917338452676
741.5288367546432,593.0775988865511
742.5298142717497,594.1664349201511
743.5307917888563,595.092042254287
744.5317693059628,594.5305948277768
745.5327468230694,593.6353598977713
746.5337243401759,591.9488555641528
747.5347018572825,591.8129490029874
748.535679374389,593.6671738228744
749.5366568914956,594.0468387258577
750.5376344086021,595.6482879568107
751.5386119257087,598.7608256122859
