Raman Shift,Intensity 
400,4.825544631
401,4.79823135
402,4.782629833
403,4.823954566
404,4.804124622
405,4.803393275
406,4.80957892
407,4.767296977
408,4.803645717
409,4.831239816
410,4.788425043
411,4.778111356
412,4.763921575
413,4.787446108
414,4.790520981
415,4.803877335
416,4.793170107
417,4.824745934
418,4.821637691
419,4.80795957
420,4.825484307
421,4.801329892
422,4.796019368
423,4.786836506
424,4.791320626
425,4.782874888
426,4.793586794
427,4.786750022
428,4.798357454
429,4.805297136
430,4.808034873
431,4.787893614
432,4.789396042
433,4.83052975
434,4.801600437
435,4.804899063
436,4.809624929
437,4.822745033
438,4.778434097
439,4.780627393
440,4.813651296
441,4.788920475
442,4.789038683
443,4.785010028
444,4.815736993
445,4.79159128
446,4.81222938
447,4.786382006
448,4.782492375
449,4.786744109
450,4.794820761
451,4.803265657
452,4.790552396
453,4.786724436
454,4.809085511
455,4.816875343
456,4.805602523
457,4.781860234
458,4.791786272
459,4.80938688
460,4.807958268
461,4.795492653
462,4.809443535
463,4.795992177
464,4.792357288
465,4.822078352
466,4.780069311
467,4.794351288
468,4.803204818
469,4.80218583
470,4.774798114
471,4.827460109
472,4.818961302
473,4.800958077
474,4.806772534
475,4.82999671
476,4.824107659
477,4.833370369
478,4.825772296
479,4.839797857
480,4.860008606
481,4.888859386
482,4.851917924
483,4.886299199
484,4.872526231
485,4.890191711
486,4.905719845
487,4.923217895
488,4.949093073
489,4.954034943
490,4.933560544
491,4.963537046
492,4.957440468
493,4.98709937
494,4.986938696
495,5.003938427
496,5.023539054
497,5.016152837
498,5.014040747
499,4.983324084
500,4.991719887
501,4.989442424
502,4.960485638
503,4.970333067
504,4.955819716
505,4.945644316
506,4.933076216
507,4.912525052
508,4.908172801
509,4.878681561
510,4.887812363
511,4.870839004
512,4.878776729
513,4.87772318
514,4.837429701
515,4.840049695
516,4.852557976
517,4.824767285
518,4.821010584
519,4.821151435
520,4.825652791
521,4.819915682
522,4.780346933
523,4.802335424
524,4.805525318
525,4.807442486
526,4.816988479
527,4.831258717
528,4.786483216
529,4.781133361
530,4.809019031
531,4.791412881
532,4.808293723
533,4.794547175
534,4.802971459
535,4.789083104
536,4.821276859
537,4.781757966
538,4.796994466
539,4.781675039
540,4.779898462
541,4.811683613
542,4.778037711
543,4.765793412
544,4.81214459
545,4.806379896
546,4.777212274
547,4.78986717
548,4.83348727
549,4.809555515
550,4.793495609
551,4.784842326
552,4.815695172
553,4.807370341
554,4.804591092
555,4.785986864
556,4.811547185
557,4.799806646
558,4.823764732
559,4.804607337
560,4.809081691
561,4.777956922
562,4.786726347
563,4.807291779
564,4.773913027
565,4.796403234
566,4.795262279
567,4.808894351
568,4.784003605
569,4.790145449
570,4.805053272
571,4.790012428
572,4.796222441
573,4.819887042
574,4.784198181
575,4.799923848
576,4.783539004
577,4.803898472
578,4.810296754
579,4.794175627
580,4.787427039
581,4.808580514
582,4.796818896
583,4.812555457
584,4.800069687
585,4.787763982
586,4.811885818
587,4.803050003
588,4.798327475
589,4.785223261
590,4.809230679
591,4.823246097
592,4.767491529
593,4.795170558
594,4.792674033
595,4.808938203
596,4.776325907
597,4.808361116
598,4.774523088
599,4.803051769
600,4.820990884
601,4.816368533
602,4.802274323
603,4.81528563
604,4.764459167
605,4.788504753
606,4.802063277
607,4.819943786
608,4.813237767
609,4.77347772
610,4.79691745
611,4.800505072
612,4.801169747
613,4.821464953
614,4.798817372
615,4.811047627
616,4.794048418
617,4.80107084
618,4.810455066
619,4.791438071
620,4.800918623
621,4.804764663
622,4.797177003
623,4.790141252
624,4.81894459
625,4.801155745
626,4.767594634
627,4.79686132
628,4.766817964
629,4.82982604
630,4.805562515
631,4.831459552
632,4.802406337
633,4.771781054
634,4.802842803
635,4.808184639
636,4.80355831
637,4.809211361
638,4.819195001
639,4.794600552
640,4.776259091
641,4.79902765
642,4.797622635
643,4.782825019
644,4.801397944
645,4.809694103
646,4.815729352
647,4.791558753
648,4.814657411
649,4.805793141
650,4.809948182
651,4.803530247
652,4.826502007
653,4.794781826
654,4.791466862
655,4.772273697
656,4.812839254
657,4.805315131
658,4.775074789
659,4.834066526
660,4.793865583
661,4.782502449
662,4.811019975
663,4.776448468
664,4.777535864
665,4.77644978
666,4.821407446
667,4.802355503
668,4.784763116
669,4.773635838
670,4.800255893
671,4.799484239
672,4.79714171
673,4.816031764
674,4.780245616
675,4.789297015
676,4.778443898
677,4.800911135
678,4.754955886
679,4.808472786
680,4.789290126
681,4.784867291
682,4.808400603
683,4.772840402
684,4.795938483
685,4.824868747
686,4.79977526
687,4.784924355
688,4.809155568
689,4.804082126
690,4.780551921
691,4.804281526
692,4.792273875
693,4.803882027
694,4.801646017
695,4.811458339
696,4.81187094
697,4.819214506
698,4.808255232
699,4.803970784
700,4.762769937
701,4.794745732
702,4.815071774
703,4.766009463
704,4.797812878
705,4.802994096
706,4.805573542
707,4.78925081
708,4.810577916
709,4.779377968
710,4.784100536
711,4.807241428
712,4.820397861
713,4.810680817
714,4.81697166
715,4.817680341
716,4.814471151
717,4.80683733
718,4.798880957
719,4.798988836
720,4.804376842
721,4.817122557
722,4.811675146
723,4.805827135
724,4.79224539
725,4.786215597
726,4.807594451
727,4.797339514
728,4.780412751
729,4.784211367
730,4.793569399
731,4.797073753
732,4.828049037
733,4.786218823
734,4.799738439
735,4.791840198
736,4.792991592
737,4.804499826
738,4.785513393
739,4.821188373
740,4.81512798
741,4.78601185
742,4.782390498
743,4.802905892
744,4.801561542
745,4.791241286
746,4.792849669
747,4.800106631
748,4.849248395
749,4.815286901
750,4.825745109
751,4.815771182
752,4.799675403
753,4.793049276
754,4.77392897
755,4.798567394
756,4.791077003
757,4.796087246
758,4.785061427
759,4.794159396
760,4.819148817
761,4.800502507
762,4.803019211
763,4.817191578
764,4.764296255
765,4.822334458
766,4.777295394
767,4.803336128
768,4.804198912
769,4.820765243
770,4.813130618
771,4.811224646
772,4.821081772
773,4.805091343
774,4.811205812
775,4.812448741
776,4.813371894
777,4.803063158
778,4.800189267
779,4.781704154
780,4.777909253
781,4.821378003
782,4.765284671
783,4.786596833
784,4.79526779
785,4.810863468
786,4.797976421
787,4.807505764
788,4.798811962
789,4.828198343
790,4.811271235
791,4.808771303
792,4.811907211
793,4.819123104
794,4.791409033
795,4.793380339
796,4.802973252
797,4.779642654
798,4.805562365
799,4.805960583
800,4.798346187
801,4.795236515
802,4.814385628
803,4.810387961
804,4.802457104
805,4.795296825
806,4.820822169
807,4.82494657
808,4.809906877
809,4.798587235
810,4.785403554
811,4.805315079
812,4.783443653
813,4.792147599
814,4.826320057
815,4.827481735
816,4.805170355
817,4.794192276
818,4.79463922
819,4.8198252
820,4.799034648
821,4.837646277
822,4.79805895
823,4.814606215
824,4.795691017
825,4.823205533
826,4.802903103
827,4.821247352
828,4.807881566
829,4.814058051
830,4.823175346
831,4.785548108
832,4.807415732
833,4.816364666
834,4.792481721
835,4.796793878
836,4.793025737
837,4.772165749
838,4.79568747
839,4.812414538
840,4.827143164
841,4.782271481
842,4.819905501
843,4.793850639
844,4.814481176
845,4.797255727
846,4.778655261
847,4.778571661
848,4.800156912
849,4.792632593
850,4.807577667
851,4.799148774
852,4.759710848
853,4.801490684
854,4.813441697
855,4.773914114
856,4.802927719
857,4.81313688
858,4.804589344
859,4.798146319
860,4.802598261
861,4.808180901
862,4.792547402
863,4.794223153
864,4.810594007
865,4.80400488
866,4.828020406
867,4.797699993
868,4.800891157
869,4.809494083
870,4.809751559
871,4.806865253
872,4.79782718
873,4.808993292
874,4.7964651
875,4.815410283
876,4.817304724
877,4.796055932
878,4.78491439
879,4.808883026
880,4.789071589
881,4.780823905
882,4.792171403
883,4.805802698
884,4.823188579
885,4.798880321
886,4.784810178
887,4.773885537
888,4.783924033
889,4.821810652
890,4.78974128
891,4.800315808
892,4.765927461
893,4.802181814
894,4.805528929
895,4.776272579
896,4.823921161
897,4.834746648
898,4.783148587
899,4.793613301
900,4.82002606
901,4.789149746
902,4.815367133
903,4.814931454
904,4.770963708
905,4.801609982
906,4.80467788
907,4.811034849
908,4.808005079
909,4.812064121
910,4.817620888
911,4.807306191
912,4.81437321
913,4.805155479
914,4.798998867
915,4.794889802
916,4.81162563
917,4.784434048
918,4.823857274
919,4.791471903
920,4.818011904
921,4.797920952
922,4.798078835
923,4.816013062
924,4.803691495
925,4.805040736
926,4.77780979
927,4.810242597
928,4.814839394
929,4.790172574
930,4.796996591
931,4.787601282
932,4.799569356
933,4.827175031
934,4.800362961
935,4.796131216
936,4.791530557
937,4.806244083
938,4.800081227
939,4.795567521
940,4.805710779
941,4.777913019
942,4.80543903
943,4.77453949
944,4.807816764
945,4.796467372
946,4.793961181
947,4.795056721
948,4.805655794
949,4.775782902
950,4.771639166
951,4.790694305
952,4.82357316
953,4.810039812
954,4.795676784
955,4.773540154
956,4.811018217
957,4.825259121
958,4.819306724
959,4.824041356
960,4.812569498
961,4.790970377
962,4.794268881
963,4.797296256
964,4.790387124
965,4.776236409
966,4.793487337
967,4.804355639
968,4.792987665
969,4.806078604
970,4.795169604
971,4.801983721
972,4.801632048
973,4.812355088
974,4.823603456
975,4.841708448
976,4.828858528
977,4.848698007
978,4.83962719
979,4.827263921
980,4.854680865
981,4.856715635
982,4.875426197
983,4.887838489
984,4.910472707
985,4.926118137
986,4.934024104
987,5.019072993
988,5.019681561
989,5.05326521
990,5.077993602
991,5.133442079
992,5.175642787
993,5.225223266
994,5.271350979
995,5.29890574
996,5.329825071
997,5.412075807
998,5.473424043
999,5.526582193
1000,5.55720135
1001,5.597230667
1002,5.626547734
1003,5.661277046
1004,5.721195209
1005,5.740540682
1006,5.757551219
1007,5.777921906
1008,5.770407412
1009,5.789130721
1010,5.813814812
1011,5.773618778
1012,5.766890639
1013,5.739574888
1014,5.722945131
1015,5.66826692
1016,5.660661393
1017,5.591478631
1018,5.538386574
1019,5.488787348
1020,5.438667123
1021,5.392426832
1022,5.368553351
1023,5.287338133
1024,5.257510736
1025,5.214038604
1026,5.150344997
1027,5.137037244
1028,5.093560851
1029,5.077452483
1030,5.021040738
1031,4.993428686
1032,4.953590823
1033,4.939613499
1034,4.899526026
1035,4.896605222
1036,4.895041793
1037,4.856848301
1038,4.889631418
1039,4.843524848
1040,4.865039167
1041,4.842314846
1042,4.818051043
1043,4.794153226
1044,4.837887838
1045,4.821897467
1046,4.812711913
1047,4.806838375
1048,4.806609405
1049,4.793797517
1050,4.796341109
1051,4.803629062
1052,4.799117955
1053,4.796196673
1054,4.813667332
1055,4.81123283
1056,4.806067827
1057,4.815719046
1058,4.814286789
1059,4.788861211
1060,4.79231736
1061,4.774460962
1062,4.804035051
1063,4.824132977
1064,4.78204781
1065,4.807840464
1066,4.772442146
1067,4.82430795
1068,4.785562375
1069,4.7979772
1070,4.782975098
1071,4.796610136
1072,4.787082453
1073,4.811987405
1074,4.809147597
1075,4.79842543
1076,4.819242861
1077,4.796311162
1078,4.788804736
1079,4.821688763
1080,4.783758725
1081,4.806079041
1082,4.798927219
1083,4.778122635
1084,4.802536465
1085,4.789461912
1086,4.806337596
1087,4.797376326
1088,4.808634571
1089,4.798093003
1090,4.823390558
1091,4.790631895
1092,4.826292005
1093,4.843574668
1094,4.823285552
1095,4.828104082
1096,4.815356108
1097,4.842285721
1098,4.835276938
1099,4.84767715
1100,4.81798681
1101,4.843211004
1102,4.858117615
1103,4.863870883
1104,4.889295478
1105,4.912024895
1106,4.891644741
1107,4.931021357
1108,4.920457821
1109,4.956415583
1110,4.952818634
1111,4.966440875
1112,5.01421836
1113,5.026883999
1114,5.038643008
1115,5.04660201
1116,5.077477744
1117,5.122378538
1118,5.145797403
1119,5.145088986
1120,5.200343253
1121,5.218717363
1122,5.228893357
1123,5.280898546
1124,5.271074659
1125,5.311733669
1126,5.318765539
1127,5.372527658
1128,5.361916147
1129,5.361804987
1130,5.372224404
1131,5.384390014
1132,5.391542811
1133,5.389687784
1134,5.394707485
1135,5.371448249
1136,5.399029698
1137,5.370055922
1138,5.371063315
1139,5.374281846
1140,5.343092777
1141,5.32366575
1142,5.279222404
1143,5.274399568
1144,5.280901341
1145,5.258518973
1146,5.261826804
1147,5.202793552
1148,5.19709734
1149,5.164381374
1150,5.122277753
1151,5.158417238
1152,5.1060067
1153,5.073347098
1154,5.030173927
1155,5.010990723
1156,4.988444525
1157,4.973680587
1158,4.959373681
1159,4.941277798
1160,4.928339843
1161,4.911470121
1162,4.910942755
1163,4.889079334
1164,4.875911913
1165,4.856168886
1166,4.864503779
1167,4.868572758
1168,4.882247794
1169,4.846995799
1170,4.823857933
1171,4.815448329
1172,4.818890914
1173,4.799965653
1174,4.81912567
1175,4.848072482
1176,4.815009043
1177,4.800758193
1178,4.783365386
1179,4.801927
1180,4.80065505
1181,4.808128524
1182,4.786055879
1183,4.794269593
1184,4.828189668
1185,4.796713836
1186,4.789872752
1187,4.787875509
1188,4.790166022
1189,4.803258129
1190,4.814976995
1191,4.784160862
1192,4.81854297
1193,4.78950562
1194,4.80766901
1195,4.805531854
1196,4.822955857
1197,4.790950427
1198,4.814722054
1199,4.779499945
1200,4.802156551
1201,4.786411935
1202,4.79693271
1203,4.805693198
1204,4.812241684
1205,4.77321364
1206,4.796569309
1207,4.769862196
1208,4.78625107
1209,4.799667279
1210,4.807124229
1211,4.789316125
1212,4.803527545
1213,4.790515398
1214,4.816208681
1215,4.798086451
1216,4.79978915
1217,4.80840653
1218,4.788812438
1219,4.812549696
1220,4.787069156
1221,4.804000999
1222,4.775837119
1223,4.800138667
1224,4.805449453
1225,4.786069637
1226,4.812724254
1227,4.799854165
1228,4.779018028
1229,4.792782191
1230,4.832811969
1231,4.791618102
1232,4.767788232
1233,4.823582301
1234,4.816461363
1235,4.802754969
1236,4.809936231
1237,4.782063082
1238,4.779624476
1239,4.81291301
1240,4.795117437
1241,4.800489748
1242,4.793170677
1243,4.79701977
1244,4.807642637
1245,4.800587352
1246,4.800333892
1247,4.808852533
1248,4.776304134
1249,4.784126332
1250,4.789331996
1251,4.812232163
1252,4.781414887
1253,4.796038343
1254,4.772477534
1255,4.813456917
1256,4.811288236
1257,4.803244053
1258,4.797867179
1259,4.773971708
1260,4.814802253
1261,4.807354519
1262,4.776428767
1263,4.790676913
1264,4.811986713
1265,4.773556056
1266,4.773942864
1267,4.785002726
1268,4.800069205
1269,4.806209056
1270,4.820142195
1271,4.807906227
1272,4.810082895
1273,4.793572717
1274,4.805841344
1275,4.812951207
1276,4.808098631
1277,4.837632135
1278,4.788653167
1279,4.805007204
1280,4.785914338
1281,4.804277389
1282,4.780811212
1283,4.799559636
1284,4.797075683
1285,4.790929066
1286,4.784525666
1287,4.769029262
1288,4.82319969
1289,4.796779018
1290,4.814014253
1291,4.791407905
1292,4.818912317
1293,4.79706673
1294,4.802985008
1295,4.80396426
1296,4.813897901
1297,4.80218002
1298,4.814324003
1299,4.791393049
1300,4.780927671
1301,4.805531948
1302,4.785920108
1303,4.799867969
1304,4.824824248
1305,4.802081188
1306,4.808610898
1307,4.802134113
1308,4.801276887
1309,4.778466822
1310,4.79561096
1311,4.823455356
1312,4.789317537
1313,4.790541669
1314,4.807740186
1315,4.76654538
1316,4.814985333
1317,4.786969251
1318,4.804426714
1319,4.793352286
1320,4.81165155
1321,4.794983155
1322,4.796210971
1323,4.821163285
1324,4.808289379
1325,4.790177955
1326,4.793131848
1327,4.791779757
1328,4.804346373
1329,4.78713757
1330,4.812782242
1331,4.802508456
1332,4.8036125
1333,4.787764928
1334,4.79688763
1335,4.792139043
1336,4.806638731
1337,4.807899365
1338,4.796605015
1339,4.802280523
1340,4.806145778
1341,4.805841788
1342,4.832419907
1343,4.807246805
1344,4.797520517
1345,4.811361554
1346,4.8115433
1347,4.787109481
1348,4.788544747
1349,4.813819699
1350,4.814463899
1351,4.832156107
1352,4.785870834
1353,4.799792955
1354,4.792449837
1355,4.828939589
1356,4.807125553
1357,4.810116019
1358,4.790327916
1359,4.823260566
1360,4.79212618
1361,4.82188774
1362,4.784212888
1363,4.80629166
1364,4.816875831
1365,4.789208403
1366,4.764724933
1367,4.805485876
1368,4.809612525
1369,4.806661331
1370,4.778948762
1371,4.805038817
1372,4.793788847
1373,4.786285903
1374,4.802790369
1375,4.799854622
1376,4.807842615
1377,4.829070517
1378,4.783348678
1379,4.798098601
1380,4.800988984
1381,4.811754323
1382,4.805173649
1383,4.773129901
1384,4.811197067
1385,4.804931738
1386,4.80288354
1387,4.785304161
1388,4.800200437
1389,4.814889473
1390,4.80262412
1391,4.800600374
1392,4.790773266
1393,4.827117886
1394,4.791683423
1395,4.835279394
1396,4.796316395
1397,4.815581717
1398,4.785039953
1399,4.780203642
1400,4.785008015
1401,4.810865103
1402,4.805012561
1403,4.784620822
1404,4.795694316
1405,4.783877054
1406,4.766021705
1407,4.814296159
1408,4.809857461
1409,4.798477598
1410,4.793074052
1411,4.808624564
1412,4.801939969
1413,4.813690326
1414,4.824029485
1415,4.794757478
1416,4.792913561
1417,4.780519035
1418,4.81289699
1419,4.779382628
1420,4.787308849
1421,4.813854574
1422,4.797623248
1423,4.798602265
1424,4.790591722
1425,4.806538063
1426,4.802027538
1427,4.826557108
1428,4.812994564
1429,4.810895171
1430,4.806407019
1431,4.806527378
1432,4.797908545
1433,4.772742642
1434,4.797377283
1435,4.80085351
1436,4.809850182
1437,4.807585727
1438,4.807876976
1439,4.807050139
1440,4.781954031
1441,4.810010382
1442,4.819069132
1443,4.831481393
1444,4.792905936
1445,4.79895828
1446,4.794623484
1447,4.801211405
1448,4.779516318
1449,4.772291755
1450,4.839121524
1451,4.795995251
1452,4.79225448
1453,4.811100147
1454,4.792283911
1455,4.797088586
1456,4.821851645
1457,4.824165517
1458,4.808390083
1459,4.790685017
1460,4.783560505
1461,4.7912994
1462,4.780786457
1463,4.786928189
1464,4.802281049
1465,4.807284798
1466,4.77802581
1467,4.805862003
1468,4.795802342
1469,4.796512005
1470,4.820227407
1471,4.805948329
1472,4.805859839
1473,4.776573271
1474,4.813260866
1475,4.797453044
1476,4.810198019
1477,4.821577262
1478,4.786261809
1479,4.8059328
1480,4.775806731
1481,4.801260328
1482,4.817434444
1483,4.787451078
1484,4.813980849
1485,4.809363309
1486,4.788082102
1487,4.796955078
1488,4.812078839
1489,4.791170318
1490,4.787749474
1491,4.807385119
1492,4.798993011
1493,4.798377892
1494,4.806418051
1495,4.811200905
1496,4.795654693
1497,4.798007452
1498,4.821911987
1499,4.813037676
1500,4.801639933
1501,4.799932516
1502,4.794589545
1503,4.811210096
1504,4.796352767
1505,4.804200982
1506,4.811261041
1507,4.803303196
1508,4.813337788
1509,4.784545755
1510,4.802688493
1511,4.80539347
1512,4.802448289
1513,4.845265203
1514,4.822752577
1515,4.783953965
1516,4.798982054
1517,4.770173859
1518,4.824530816
1519,4.819814724
1520,4.790373399
1521,4.808706167
1522,4.810611235
1523,4.826228739
1524,4.810346221
1525,4.819175984
1526,4.822632533
1527,4.80045795
1528,4.795255313
1529,4.809585863
1530,4.779200925
1531,4.807405585
1532,4.795699232
1533,4.817710354
1534,4.795149444
1535,4.790571678
1536,4.815401256
1537,4.815111281
1538,4.805848632
1539,4.824055339
1540,4.806882829
1541,4.808549528
1542,4.803051975
1543,4.784921887
1544,4.797766444
1545,4.79653775
1546,4.790948729
1547,4.813763465
1548,4.818738466
1549,4.765756823
1550,4.791356902
1551,4.775868739
1552,4.783310776
1553,4.80305027
1554,4.803176546
1555,4.799393017
1556,4.797044852
1557,4.806386288
1558,4.802874302
1559,4.824563041
1560,4.802435093
1561,4.777926344
1562,4.792728454
1563,4.782779323
1564,4.803369128
1565,4.782587674
1566,4.811160095
1567,4.795979721
1568,4.80599876
1569,4.817700801
1570,4.780201584
1571,4.806954658
1572,4.770943111
1573,4.807609225
1574,4.787588124
1575,4.790693138
1576,4.797809095
1577,4.801262626
1578,4.792955405
1579,4.780823121
1580,4.797487242
1581,4.817690083
1582,4.797240196
1583,4.79110062
1584,4.793378178
1585,4.799379024
1586,4.806838517
1587,4.797611789
1588,4.81112639
1589,4.813353396
1590,4.790926554
1591,4.783017851
1592,4.774121355
1593,4.807951622
1594,4.795000918
1595,4.819708837
1596,4.804098728
1597,4.806063592
1598,4.782713679
1599,4.794067857
1600,4.815617364
1601,4.797909398
1602,4.808468874
1603,4.834094496
1604,4.803336539
1605,4.791830884
1606,4.783637743
1607,4.824217988
1608,4.801927125
1609,4.802824844
1610,4.80637025
1611,4.809033832
1612,4.791122576
1613,4.810088568
1614,4.820595283
1615,4.820262531
1616,4.785740351
1617,4.791288434
1618,4.809274298
1619,4.816120651
1620,4.791316466
1621,4.82855695
1622,4.805473754
1623,4.802618508
1624,4.818698139
1625,4.810639001
1626,4.806771876
1627,4.801591026
1628,4.809164052
1629,4.779699089
1630,4.810280713
1631,4.804374788
1632,4.810774299
1633,4.805986536
1634,4.798542574
1635,4.81248587
1636,4.801479318
1637,4.829100095
1638,4.788878978
1639,4.812646758
1640,4.796638148
1641,4.817437152
1642,4.812865888
1643,4.787603555
1644,4.770704278
1645,4.80344085
1646,4.826186258
1647,4.820521055
1648,4.836013404
1649,4.773740757
1650,4.815350315
1651,4.815532736
1652,4.809117369
1653,4.809057278
1654,4.799116742
1655,4.807649791
1656,4.839005744
1657,4.790701017
1658,4.805109591
1659,4.791759964
1660,4.782690011
1661,4.820580939
1662,4.806036746
1663,4.761651899
1664,4.808002913
1665,4.780249631
1666,4.782034881
1667,4.818102068
1668,4.800178173
1669,4.788887876
1670,4.803271435
1671,4.797689323
1672,4.807504586
1673,4.789258067
1674,4.815351892
1675,4.78972818
1676,4.781818449
1677,4.782690073
1678,4.797017558
1679,4.786890379
1680,4.793158187
1681,4.787503895
1682,4.798591373
1683,4.77381218
1684,4.798663448
1685,4.797169446
1686,4.785837382
1687,4.80432326
1688,4.812544485
1689,4.796615646
1690,4.818795073
1691,4.787227676
1692,4.827023856
1693,4.793416047
1694,4.80165788
1695,4.77919934
1696,4.79268361
1697,4.790497639
1698,4.797203924
1699,4.814975634
1700,4.824929499
1701,4.782553256
1702,4.813385419
1703,4.805502274
1704,4.788663321
1705,4.813287237
1706,4.812571345
1707,4.795453843
1708,4.820663109
1709,4.81865659
1710,4.784313438
1711,4.782081409
1712,4.776709598
1713,4.809018774
1714,4.821189914
1715,4.798395712
1716,4.81571294
1717,4.808569169
1718,4.792163888
1719,4.807724977
1720,4.794356913
1721,4.784944666
1722,4.812025073
1723,4.819622902
1724,4.820086408
1725,4.78755361
1726,4.80857982
1727,4.78312014
1728,4.792221364
1729,4.818315523
1730,4.816243502
1731,4.815464898
1732,4.794357904
1733,4.791715956
1734,4.777291875
1735,4.808125167
1736,4.792127603
1737,4.826348996
1738,4.780658242
1739,4.794967938
1740,4.817281277
1741,4.776088897
1742,4.799035604
1743,4.775174332
1744,4.772320108
1745,4.799399824
1746,4.791142653
1747,4.779343113
1748,4.791472609
1749,4.810350814
1750,4.807349531
1751,4.806036209
1752,4.781019689
1753,4.811226371
1754,4.814579767
1755,4.781202247
1756,4.8006138
1757,4.825011357
1758,4.795067647
1759,4.800575491
1760,4.79724513
1761,4.813706174
1762,4.80407821
1763,4.774159942
1764,4.774955316
1765,4.836572218
1766,4.808559793
1767,4.814902099
1768,4.808584103
1769,4.804699751
1770,4.777977814
1771,4.807935552
1772,4.79133265
1773,4.799992098
1774,4.801663381
1775,4.792306938
1776,4.790592484
1777,4.799413186
1778,4.813828513
1779,4.7995304
1780,4.828659922
1781,4.791710213
1782,4.789250987
1783,4.79563741
1784,4.803489085
1785,4.812860226
1786,4.787852591
1787,4.800550738
1788,4.804995702
1789,4.798520813
1790,4.788257627
1791,4.792283959
1792,4.807720339
1793,4.807845587
1794,4.793630683
1795,4.803426376
1796,4.819669534
1797,4.803340505
1798,4.79133454
1799,4.8085582
1800,4.783330535
1801,4.81903334
1802,4.82891312
1803,4.772688164
1804,4.830095403
1805,4.802723145
1806,4.800192911
1807,4.799673998
1808,4.7928646
1809,4.803948436
1810,4.764240676
1811,4.780545199
1812,4.798945262
1813,4.818181892
1814,4.777411792
1815,4.804732133
1816,4.802190286
1817,4.80558604
1818,4.796973004
1819,4.810937662
1820,4.801886024
1821,4.815854037
1822,4.823972561
1823,4.807254287
1824,4.804529777
1825,4.78588863
1826,4.827202456
1827,4.786180085
1828,4.806289074
1829,4.799259605
1830,4.78929534
1831,4.788993572
1832,4.77939166
1833,4.819250162
1834,4.793173145
1835,4.783405034
1836,4.811770827
1837,4.776222705
1838,4.793647964
1839,4.799250405
1840,4.802367227
1841,4.786590981
1842,4.776338978
1843,4.8126595
1844,4.781912223
1845,4.80842072
1846,4.819848324
1847,4.773016392
1848,4.7973636
1849,4.804955219
1850,4.810721352
1851,4.817404605
1852,4.815367236
1853,4.782872023
1854,4.800794317
1855,4.818688994
1856,4.787674767
1857,4.813214486
1858,4.811202066
1859,4.798600306
1860,4.792068187
1861,4.795365767
1862,4.787955507
1863,4.802911608
1864,4.790059484
1865,4.802417887
1866,4.799829228
1867,4.779584509
1868,4.811636618
1869,4.784113506
1870,4.78921781
1871,4.795581768
1872,4.775703959
1873,4.801700631
1874,4.782650418
1875,4.812989642
1876,4.786872473
1877,4.781475018
1878,4.810743949
1879,4.801645128
1880,4.791047483
1881,4.795537194
1882,4.813570601
1883,4.776087699
1884,4.780187397
1885,4.791136556
1886,4.804133766
1887,4.817636541
1888,4.821588664
1889,4.797444071
1890,4.796274751
1891,4.810419244
1892,4.80550125
1893,4.795883519
1894,4.80068083
1895,4.800321343
1896,4.786535796
1897,4.796680407
1898,4.802588468
1899,4.799007029
1900,4.780538316
1901,4.787300145
1902,4.785117173
1903,4.826851906
1904,4.772160598
1905,4.806320021
1906,4.798527495
1907,4.793930012
1908,4.790892402
1909,4.811508746
1910,4.791610745
1911,4.792274702
1912,4.815752922
1913,4.7655848
1914,4.794005146
1915,4.805522822
1916,4.797658281
1917,4.810585094
1918,4.821926278
1919,4.804247263
1920,4.816117105
1921,4.806687372
1922,4.806251883
1923,4.78890578
1924,4.798965111
1925,4.821755829
1926,4.762923063
1927,4.814651685
1928,4.796523899
1929,4.805298088
1930,4.773609198
1931,4.795078746
1932,4.796438076
1933,4.787728243
1934,4.826180984
1935,4.793744022
1936,4.801843466
1937,4.794602487
1938,4.788566862
1939,4.800427656
1940,4.799741291
1941,4.776953273
1942,4.805872955
1943,4.805214538
1944,4.792044126
1945,4.817331013
1946,4.788779192
1947,4.80263135
1948,4.815072483
1949,4.79775332
1950,4.815705225
1951,4.793964673
1952,4.801632918
1953,4.794245975
1954,4.766410069
1955,4.807162733
1956,4.818042834
1957,4.828672296
1958,4.80122394
1959,4.784281983
1960,4.785836018
1961,4.793707879
1962,4.82504408
1963,4.794325706
1964,4.797431445
1965,4.812181717
1966,4.778586763
1967,4.800578353
1968,4.782117533
1969,4.781295364
1970,4.768832607
1971,4.790359875
1972,4.824111919
1973,4.777544965
1974,4.80672884
1975,4.826276374
1976,4.823596821
1977,4.816222642
1978,4.814378628
1979,4.785583939
1980,4.795829544
1981,4.817370236
1982,4.792487639
1983,4.79728395
1984,4.809469993
1985,4.819426989
1986,4.79247036
1987,4.822348248
1988,4.780707262
1989,4.787106499
1990,4.8061418
1991,4.806649905
1992,4.78486932
1993,4.818789358
1994,4.796148906
1995,4.779629717
1996,4.791224241
1997,4.806450015
1998,4.837115003
1999,4.808272443
2000,4.800350012
2001,4.818965864
2002,4.798627271
2003,4.826529832
2004,4.824862137
2005,4.801420918
2006,4.79904334
2007,4.78431278
2008,4.810900867
2009,4.805478937
2010,4.811308142
2011,4.803942902
2012,4.789158989
2013,4.795614688
2014,4.788994623
2015,4.798292711
2016,4.791456601
2017,4.801663465
2018,4.816564516
2019,4.806817724
2020,4.805715356
2021,4.813997899
2022,4.812753874
2023,4.824848464
2024,4.808966735
2025,4.780202362
2026,4.80722142
2027,4.829672999
2028,4.784341084
2029,4.784801986
2030,4.785890463
2031,4.811047785
2032,4.805163868
2033,4.800471601
2034,4.811363247
2035,4.77470789
2036,4.795972661
2037,4.815392728
2038,4.79755185
2039,4.803007726
2040,4.782987674
2041,4.771699791
2042,4.790065522
2043,4.801019143
2044,4.785834395
2045,4.802982496
2046,4.77426426
2047,4.784520058
2048,4.794921207
2049,4.789848305
2050,4.809524277
2051,4.763936699
2052,4.805190729
2053,4.806745515
2054,4.780632107
2055,4.818163811
2056,4.804850057
2057,4.792759913
2058,4.812350006
2059,4.804107465
2060,4.797990932
2061,4.796104983
2062,4.796612567
2063,4.793015817
2064,4.775621774
2065,4.808504831
2066,4.805115108
2067,4.815805929
2068,4.778135705
2069,4.798453251
2070,4.788111209
2071,4.794691591
2072,4.787657117
2073,4.793235869
2074,4.809074325
2075,4.799606906
2076,4.802207099
2077,4.779563594
2078,4.83899842
2079,4.795357447
2080,4.812065472
2081,4.81185923
2082,4.806498915
2083,4.780831056
2084,4.80935753
2085,4.810564491
2086,4.815387218
2087,4.775783519
2088,4.773252428
2089,4.777460073
2090,4.807221318
2091,4.801435215
2092,4.799448807
2093,4.775379744
2094,4.7728438
2095,4.788393219
2096,4.822005988
2097,4.770288217
2098,4.813396784
2099,4.792145979
2100,4.81032744
2101,4.776628286
2102,4.790765889
2103,4.799255063
2104,4.791910441
2105,4.793928925
2106,4.798590377
2107,4.802463146
2108,4.789468112
2109,4.805537411
2110,4.817259563
2111,4.77141094
2112,4.782276904
2113,4.822182146
2114,4.7959652
2115,4.813725595
2116,4.786848442
2117,4.80912101
2118,4.804399525
2119,4.787196645
2120,4.814738924
2121,4.798127313
2122,4.790177882
2123,4.791315202
2124,4.796613353
2125,4.793049018
2126,4.816591899
2127,4.807112232
2128,4.772240624
2129,4.801585026
2130,4.800765279
2131,4.820552761
2132,4.795862234
2133,4.811237286
2134,4.79175838
2135,4.786027135
2136,4.827910835
2137,4.771991426
2138,4.779254767
2139,4.771967991
2140,4.834866196
2141,4.818429881
2142,4.797661071
2143,4.794246053
2144,4.808256888
2145,4.805127963
2146,4.810750048
2147,4.807660238
2148,4.78695766
2149,4.791451135
2150,4.788963559
2151,4.78834894
2152,4.794163394
2153,4.782472559
2154,4.803725808
2155,4.810551356
2156,4.790557384
2157,4.793049818
2158,4.782986103
2159,4.789078652
2160,4.805490146
2161,4.795680636
2162,4.777509689
2163,4.804504038
2164,4.796731141
2165,4.801991179
2166,4.807092924
2167,4.803894841
2168,4.793027987
2169,4.80494257
2170,4.790618785
2171,4.768824681
2172,4.817792051
2173,4.813046699
2174,4.798891363
2175,4.776509521
2176,4.793677938
2177,4.799835087
2178,4.810798111
2179,4.786564724
2180,4.804350747
2181,4.791906742
2182,4.816282067
2183,4.796679184
2184,4.812357287
2185,4.805252296
2186,4.751858628
2187,4.827041325
2188,4.784207393
2189,4.807288521
2190,4.818218148
2191,4.803181631
2192,4.769311458
2193,4.777922156
2194,4.805704614
2195,4.801375678
2196,4.778646748
2197,4.825589319
2198,4.804192507
2199,4.783213342
2200,4.789375804
2201,4.811782906
2202,4.786601487
2203,4.794286045
2204,4.80840205
2205,4.831736138
2206,4.790488424
2207,4.798423419
2208,4.793394168
2209,4.787115899
2210,4.775575763
2211,4.791501749
2212,4.796519148
2213,4.795413739
2214,4.822856299
2215,4.770232638
2216,4.818798937
2217,4.810774158
2218,4.796223109
2219,4.791681417
2220,4.809143106
2221,4.806614808
2222,4.78524416
2223,4.786229242
2224,4.796352472
2225,4.784514971
2226,4.813853801
2227,4.803760799
2228,4.773930224
2229,4.796878017
2230,4.79963221
2231,4.799167456
2232,4.801359209
2233,4.828569886
2234,4.801993876
2235,4.81677054
2236,4.821668376
2237,4.793548908
2238,4.777928986
2239,4.802369205
2240,4.799897197
2241,4.828759608
2242,4.808604747
2243,4.821654254
2244,4.822010343
2245,4.794116387
2246,4.792055297
2247,4.796120561
2248,4.776801731
2249,4.770470594
2250,4.802429165
2251,4.801914155
2252,4.800852914
2253,4.783983482
2254,4.798876931
2255,4.802774694
2256,4.799653674
2257,4.812239917
2258,4.767587345
2259,4.805876215
2260,4.788695968
2261,4.793536589
2262,4.815880974
2263,4.821586135
2264,4.806645213
2265,4.796964798
2266,4.795715498
2267,4.800792128
2268,4.819626415
2269,4.800661605
2270,4.808023809
2271,4.828837475
2272,4.781524174
2273,4.786983502
2274,4.787376904
2275,4.79052366
2276,4.814688483
2277,4.806482674
2278,4.812956277
2279,4.807460707
2280,4.810298261
2281,4.812117888
2282,4.809533551
2283,4.79534582
2284,4.801517823
2285,4.773384497
2286,4.78754359
2287,4.804597087
2288,4.799253474
2289,4.801956128
2290,4.828023349
2291,4.80423668
2292,4.784646351
2293,4.793249033
2294,4.802758537
2295,4.806719302
2296,4.820306814
2297,4.809640202
2298,4.789505071
2299,4.814824762
2300,4.827784831
2301,4.814387196
2302,4.777799777
2303,4.822640158
2304,4.807262651
2305,4.787844407
2306,4.803330114
2307,4.797744858
2308,4.822548173
2309,4.810157454
2310,4.817477318
2311,4.788659327
2312,4.796519789
2313,4.817611494
2314,4.795093271
2315,4.81119305
2316,4.790129813
2317,4.801805822
2318,4.794615228
2319,4.816577001
2320,4.789540989
2321,4.802504699
2322,4.814562124
2323,4.821291426
2324,4.807109084
2325,4.821459689
2326,4.804149351
2327,4.779420044
2328,4.81337467
2329,4.798707012
2330,4.803398463
2331,4.811757251
2332,4.777703328
2333,4.808649043
2334,4.788524645
2335,4.7701458
2336,4.804791384
2337,4.836143965
2338,4.810840486
2339,4.801540607
2340,4.816206956
2341,4.811977519
2342,4.802321111
2343,4.794487159
2344,4.814573969
2345,4.824278637
2346,4.806133734
2347,4.776957099
2348,4.812777515
2349,4.811055866
2350,4.785650639
2351,4.794320587
2352,4.790307744
2353,4.811226018
2354,4.785646657
2355,4.771598632
2356,4.778944301
2357,4.766409617
2358,4.78269208
2359,4.788349347
2360,4.805899626
2361,4.806618903
2362,4.799454471
2363,4.788091988
2364,4.807924918
2365,4.781786917
2366,4.80344563
2367,4.811008562
2368,4.776048199
2369,4.787000156
2370,4.788692058
2371,4.809459387
2372,4.774226136
2373,4.820232541
2374,4.803038616
2375,4.830817415
2376,4.787291306
2377,4.810453696
2378,4.782958042
2379,4.796769399
2380,4.811390886
2381,4.782737726
2382,4.811835009
2383,4.841172759
2384,4.811662044
2385,4.800906842
2386,4.793159868
2387,4.810120403
2388,4.824475655
2389,4.809098434
2390,4.802435527
2391,4.825353663
2392,4.795516099
2393,4.812955654
2394,4.781343791
2395,4.789389357
2396,4.802629708
2397,4.779668031
2398,4.784862392
2399,4.81299365
2400,4.787714677
2401,4.793670184
2402,4.798433668
2403,4.768275835
2404,4.781636072
2405,4.778732381
2406,4.781063788
2407,4.818176417
2408,4.783267255
2409,4.811845256
2410,4.800642953
2411,4.795712897
2412,4.81901867
2413,4.796010627
2414,4.778859054
2415,4.79135802
2416,4.792393098
2417,4.814488883
2418,4.799286012
2419,4.799649552
2420,4.801095986
2421,4.809001685
2422,4.796917635
2423,4.825067413
2424,4.804235325
2425,4.825997292
2426,4.789139759
2427,4.798122411
2428,4.820796365
2429,4.800750818
2430,4.788133837
2431,4.793488418
2432,4.795380607
2433,4.795894233
2434,4.802846699
2435,4.821673359
2436,4.811041517
2437,4.829023577
2438,4.78427857
2439,4.793113247
2440,4.800097499
2441,4.806075437
2442,4.823967715
2443,4.811667743
2444,4.799019973
2445,4.788754087
2446,4.803366891
2447,4.82344748
2448,4.85637947
2449,4.787137562
2450,4.823697291
2451,4.799007643
2452,4.82591354
2453,4.799422608
2454,4.789525843
2455,4.819043918
2456,4.826275026
2457,4.81606318
2458,4.782788289
2459,4.787044103
2460,4.788232141
2461,4.793944188
2462,4.805811494
2463,4.790785207
2464,4.81188758
2465,4.800064962
2466,4.810298756
2467,4.839117453
2468,4.803433864
2469,4.796988457
2470,4.783925445
2471,4.786607242
2472,4.794084913
2473,4.80582358
2474,4.802637269
2475,4.810136427
2476,4.789761776
2477,4.798168115
2478,4.820618609
2479,4.82484352
2480,4.796219538
2481,4.800124827
2482,4.793644128
2483,4.81393983
2484,4.783503988
2485,4.800824239
2486,4.795628406
2487,4.799971059
2488,4.81001229
2489,4.790781092
2490,4.805915186
2491,4.793531096
2492,4.815609526
2493,4.791874112
2494,4.796677185
2495,4.770740039
2496,4.778537407
2497,4.801468222
2498,4.7962202
2499,4.813336896
2500,4.79267183
2501,4.782176537
2502,4.802413434
2503,4.793547252
2504,4.800188296
2505,4.822130062
2506,4.791028638
2507,4.775770527
2508,4.814288974
2509,4.786243624
2510,4.784932451
2511,4.804023209
2512,4.788810327
2513,4.808661639
2514,4.793082033
2515,4.830585491
2516,4.78273795
2517,4.793845635
2518,4.786587414
2519,4.79267203
2520,4.771750836
2521,4.776062582
2522,4.786503167
2523,4.821523656
2524,4.779957592
2525,4.80104413
2526,4.792895015
2527,4.79475783
2528,4.789594168
2529,4.80232386
2530,4.779739632
2531,4.825448259
2532,4.795551524
2533,4.778978743
2534,4.790509943
2535,4.809407276
2536,4.792418914
2537,4.809193916
2538,4.802852047
2539,4.809558164
2540,4.806421155
2541,4.790514083
2542,4.79825277
2543,4.807488567
2544,4.817074083
2545,4.77280311
2546,4.78280065
2547,4.790874432
2548,4.766862063
2549,4.801279167
2550,4.799102625
2551,4.816474036
2552,4.805743121
2553,4.784064782
2554,4.786412135
2555,4.795926971
2556,4.800655732
2557,4.778405935
2558,4.807740912
2559,4.797909101
2560,4.813631447
2561,4.831449592
2562,4.773604924
2563,4.79143822
2564,4.78445242
2565,4.813938997
2566,4.824782695
2567,4.785264447
2568,4.803450166
2569,4.808860449
2570,4.811657769
2571,4.806323814
2572,4.790743696
2573,4.790539186
2574,4.807606866
2575,4.794481503
2576,4.801419246
2577,4.817901719
2578,4.791706641
2579,4.808269116
2580,4.778761375
2581,4.784431482
2582,4.782316931
2583,4.813139699
2584,4.802896206
2585,4.796969904
2586,4.816950743
2587,4.801706704
2588,4.803245968
2589,4.781462689
2590,4.79132629
2591,4.801024031
2592,4.823117312
2593,4.795508974
2594,4.797912923
2595,4.804362276
2596,4.799287157
2597,4.812869805
2598,4.814624696
2599,4.814129524
2600,4.815164886
2601,4.813084378
2602,4.794084847
2603,4.810850328
2604,4.816732473
2605,4.789656679
2606,4.807742466
2607,4.817974188
2608,4.811123335
2609,4.801375455
2610,4.797362174
2611,4.778818915
2612,4.772453196
2613,4.782751339
2614,4.809357368
2615,4.776336972
2616,4.824119407
2617,4.795394662
2618,4.788116069
2619,4.753570897
2620,4.792258803
2621,4.809538544
2622,4.818445247
2623,4.800592529
2624,4.791064842
2625,4.793854141
2626,4.80559293
2627,4.805078996
2628,4.784437043
2629,4.780482409
2630,4.804265359
2631,4.805022929
2632,4.779008849
2633,4.79670884
2634,4.823805149
2635,4.794789685
2636,4.791915877
2637,4.817336723
2638,4.813957487
2639,4.781707204
2640,4.824898498
2641,4.79441155
2642,4.798533128
2643,4.794455488
2644,4.785785889
2645,4.813745789
2646,4.791237619
2647,4.807046386
2648,4.803177286
2649,4.778479302
2650,4.809526102
2651,4.787323677
2652,4.78373122
2653,4.807054347
2654,4.805114262
2655,4.783223233
2656,4.820730536
2657,4.807106723
2658,4.785353803
2659,4.813952353
2660,4.806495675
2661,4.803780832
2662,4.819056054
2663,4.790954151
2664,4.797872101
2665,4.804216281
2666,4.816286317
2667,4.806044564
2668,4.818461544
2669,4.816958675
2670,4.819303299
2671,4.803602532
2672,4.796496968
2673,4.798481025
2674,4.820837833
2675,4.798813532
2676,4.809894377
2677,4.791092476
2678,4.808549828
2679,4.801074106
2680,4.799430809
2681,4.808148725
2682,4.825440691
2683,4.787182194
2684,4.786924137
2685,4.797779943
2686,4.786598543
2687,4.795692585
2688,4.806051693
2689,4.781680928
2690,4.80337756
2691,4.793462967
2692,4.796658633
2693,4.783504588
2694,4.786356923
2695,4.79688241
2696,4.818686922
2697,4.80699101
2698,4.797647605
2699,4.764019199
2700,4.823279645
2701,4.780591961
2702,4.820128264
2703,4.787942782
2704,4.789670732
2705,4.818992237
2706,4.793163594
2707,4.781033784
2708,4.820123895
2709,4.805006344
2710,4.784283252
2711,4.806938984
2712,4.789728165
2713,4.804161997
2714,4.800365402
2715,4.795701112
2716,4.835578799
2717,4.820678445
2718,4.819319967
2719,4.825833705
2720,4.783110113
2721,4.79784047
2722,4.806892763
2723,4.812938142
2724,4.798134835
2725,4.809406726
2726,4.800600465
2727,4.779061879
2728,4.817763246
2729,4.818250847
2730,4.783153265
2731,4.776036347
2732,4.807560512
2733,4.800521758
2734,4.818797481
2735,4.807331708
2736,4.814734394
2737,4.798740925
2738,4.80356144
2739,4.826462172
2740,4.782485733
2741,4.817434102
2742,4.791208339
2743,4.790951138
2744,4.78624686
2745,4.798700646
2746,4.786138053
2747,4.820724345
2748,4.802898326
2749,4.808080785
2750,4.779327405
2751,4.788267184
2752,4.810383902
2753,4.82321398
2754,4.808586437
2755,4.766888616
2756,4.798277907
2757,4.802376192
2758,4.79256527
2759,4.80278647
2760,4.806376828
2761,4.823088053
2762,4.803855557
2763,4.791449312
2764,4.804019593
2765,4.79866269
2766,4.784225058
2767,4.823725742
2768,4.796307512
2769,4.801773554
2770,4.781948724
2771,4.788785519
2772,4.790082571
2773,4.79584698
2774,4.813234964
2775,4.780851787
2776,4.80605031
2777,4.823400667
2778,4.813291498
2779,4.803841048
2780,4.798269257
2781,4.789944545
2782,4.813436729
2783,4.788683005
2784,4.790543025
2785,4.781508806
2786,4.783529869
2787,4.786306507
2788,4.819314299
2789,4.799844093
2790,4.829481685
2791,4.795060083
2792,4.801199873
2793,4.800519759
2794,4.779455175
2795,4.808255867
2796,4.801166554
2797,4.775036505
2798,4.807780572
2799,4.787398322
2800,4.805187629
2801,4.802677638
2802,4.782064622
2803,4.80179791
2804,4.791816991
2805,4.779436031
2806,4.761665308
2807,4.788735268
2808,4.791396848
2809,4.803359905
2810,4.796608792
2811,4.797931869
2812,4.817630117
2813,4.80955872
2814,4.759569752
2815,4.7987852
2816,4.804718842
2817,4.783777267
2818,4.818779713
2819,4.798550065
2820,4.799169756
2821,4.789579881
2822,4.785290509
2823,4.80011291
2824,4.792334792
2825,4.804968206
2826,4.81777176
2827,4.796166437
2828,4.764740138
2829,4.789811665
2830,4.790554679
2831,4.790139897
2832,4.79559782
2833,4.801407027
2834,4.79870609
2835,4.796613522
2836,4.818054941
2837,4.778799075
2838,4.822846551
2839,4.806962134
2840,4.792279569
2841,4.791105325
2842,4.771955161
2843,4.834770784
2844,4.806954123
2845,4.779691766
2846,4.779201333
2847,4.791010614
2848,4.795477913
2849,4.808518236
2850,4.805347545
2851,4.811082153
2852,4.808576591
2853,4.80567285
2854,4.807340291
2855,4.795206852
2856,4.816158473
2857,4.796794316
2858,4.804575898
2859,4.80265323
2860,4.800174947
2861,4.817833866
2862,4.809016993
2863,4.813733951
2864,4.791584078
2865,4.843053377
2866,4.806772399
2867,4.807320163
2868,4.802206112
2869,4.789657926
2870,4.781084282
2871,4.817567032
2872,4.799393321
2873,4.789352093
2874,4.798101602
2875,4.76911695
2876,4.800284852
2877,4.825801049
2878,4.762392908
2879,4.825743704
2880,4.799616544
2881,4.807854061
2882,4.819231217
2883,4.787789724
2884,4.801114426
2885,4.78028727
2886,4.800793002
2887,4.797459286
2888,4.828116694
2889,4.773610733
2890,4.803450795
2891,4.816330767
2892,4.807348772
2893,4.804576688
2894,4.818317747
2895,4.776135579
2896,4.806051634
2897,4.789154678
2898,4.800367447
2899,4.791767139
2900,4.785904883
2901,4.797268195
2902,4.779653441
2903,4.801928615
2904,4.793176171
2905,4.801409607
2906,4.793606381
2907,4.809830255
2908,4.783776383
2909,4.789040484
2910,4.805372586
2911,4.793252964
2912,4.811893228
2913,4.814045862
2914,4.796252214
2915,4.820099081
2916,4.790931519
2917,4.801527459
2918,4.791180594
2919,4.778738274
2920,4.808998278
2921,4.822188849
2922,4.788128486
2923,4.787613163
2924,4.779622839
2925,4.797497266
2926,4.804634146
2927,4.794258951
2928,4.800546583
2929,4.782998162
2930,4.763418039
2931,4.800578646
2932,4.818581249
2933,4.815477885
2934,4.788696076
2935,4.801767481
2936,4.828742422
2937,4.821383241
2938,4.796793231
2939,4.778040014
2940,4.807679936
2941,4.82203378
2942,4.790243055
2943,4.791501245
2944,4.788487422
2945,4.79461026
2946,4.794922693
2947,4.81038229
2948,4.807319341
2949,4.805418242
2950,4.786577671
2951,4.791030945
2952,4.80488566
2953,4.814961623
2954,4.786792854
2955,4.795589058
2956,4.791356406
2957,4.822302258
2958,4.812090317
2959,4.797647438
2960,4.789502337
2961,4.820530392
2962,4.786392291
2963,4.771994374
2964,4.78243675
2965,4.81231344
2966,4.793482934
2967,4.797652247
2968,4.775953098
2969,4.795672146
2970,4.794083698
2971,4.816643314
2972,4.776809463
2973,4.795105033
2974,4.816237862
2975,4.78234034
2976,4.78730912
2977,4.796388459
2978,4.800193179
2979,4.807885181
2980,4.772241396
2981,4.80077324
2982,4.80476742
2983,4.812032557
2984,4.79079107
2985,4.790718411
2986,4.825972701
2987,4.813653884
2988,4.766591036
2989,4.785258195
2990,4.804924239
2991,4.794956586
2992,4.788733401
2993,4.796566571
2994,4.784479729
2995,4.822254447
2996,4.794172509
2997,4.830346845
2998,4.814981006
2999,4.791198129
3000,4.793305788
3001,4.819172988
3002,4.774648267
3003,4.794062936
3004,4.798796561
3005,4.825984346
3006,4.810101145
3007,4.800733484
3008,4.800104131
3009,4.818986224
3010,4.821372602
3011,4.811729552
3012,4.784915125
3013,4.81279239
3014,4.787449933
3015,4.801690388
3016,4.777066342
3017,4.784914013
3018,4.796276169
3019,4.805436058
3020,4.798415639
3021,4.806828223
3022,4.789970364
3023,4.787933037
3024,4.788301102
3025,4.77886212
3026,4.798233883
3027,4.800586298
3028,4.816948001
3029,4.824397048
3030,4.778946877
3031,4.791703889
3032,4.772369668
3033,4.791604158
3034,4.811333217
3035,4.806165922
3036,4.79886031
3037,4.839239432
3038,4.792665061
3039,4.801433541
3040,4.81028777
3041,4.800791819
3042,4.810396188
3043,4.80154864
3044,4.802498136
3045,4.793155082
3046,4.800014574
3047,4.806605236
3048,4.820664922
3049,4.786657089
3050,4.776106047
3051,4.79076359
3052,4.793156386
3053,4.810700477
3054,4.815317221
3055,4.795133535
3056,4.783388641
3057,4.812479717
3058,4.807242244
3059,4.795321334
3060,4.80192157
3061,4.80076049
3062,4.776461384
3063,4.789291009
3064,4.806590165
3065,4.820487224
3066,4.810119254
3067,4.796495402
3068,4.789587485
3069,4.799807532
3070,4.821102167
3071,4.7945021
3072,4.81368148
3073,4.796182682
3074,4.815731143
3075,4.789066148
3076,4.785395447
3077,4.808823511
3078,4.786855928
3079,4.821704233
3080,4.768674123
3081,4.786868382
3082,4.802973406
3083,4.804019526
3084,4.8220053
3085,4.822022449
3086,4.819255392
3087,4.806041069
3088,4.807285304
3089,4.78199707
3090,4.775797731
3091,4.788220938
3092,4.811330326
3093,4.811718895
3094,4.795533739
3095,4.780220683
3096,4.824055462
3097,4.817816976
3098,4.781199004
3099,4.802928202
3100,4.794641503
3101,4.822674988
3102,4.797144432
3103,4.782919038
3104,4.81445844
3105,4.805011491
3106,4.801568697
3107,4.775603766
3108,4.794490598
3109,4.787747848
3110,4.798974627
3111,4.791272198
3112,4.827091623
3113,4.794918638
3114,4.786737444
3115,4.825825311
3116,4.81885275
3117,4.794966776
3118,4.812392948
3119,4.797063534
3120,4.817054232
3121,4.791195
3122,4.8152215
3123,4.813722701
3124,4.808686434
3125,4.796392006
3126,4.796161471
3127,4.796375211
3128,4.789080982
3129,4.800890007
3130,4.804789369
3131,4.784503966
3132,4.801202913
3133,4.77883559
3134,4.784172273
3135,4.807910297
3136,4.796416849
3137,4.761756243
3138,4.787101664
3139,4.803941584
3140,4.824570932
3141,4.80637341
3142,4.807929621
3143,4.804788428
3144,4.778984596
3145,4.802080787
3146,4.781536945
3147,4.814639136
3148,4.780504991
3149,4.809115852
3150,4.813860449
3151,4.804480678
3152,4.778226572
3153,4.799652768
3154,4.784658617
3155,4.789105687
3156,4.783258012
3157,4.802763706
3158,4.780730294
3159,4.801814461
3160,4.810012618
3161,4.793313366
3162,4.808457414
3163,4.794477712
3164,4.800381701
3165,4.802128461
3166,4.811671741
3167,4.79610234
3168,4.804257146
3169,4.794861571
3170,4.794933617
3171,4.811973855
3172,4.812518577
3173,4.791304255
3174,4.785370314
3175,4.806524927
3176,4.810582086
3177,4.793422272
3178,4.782812691
3179,4.781859663
3180,4.8153897
3181,4.798672926
3182,4.776036705
3183,4.814130286
3184,4.831560846
3185,4.794835188
3186,4.81364201
3187,4.786013622
3188,4.790999078
3189,4.781402634
3190,4.773284885
3191,4.79442539
3192,4.791737938
3193,4.812426637
3194,4.813585198
3195,4.797257058
3196,4.778744401
3197,4.817207332
3198,4.799381117
3199,4.812001151
3200,4.828422002
3201,4.814829698
3202,4.79514437
3203,4.800922215
3204,4.813020885
3205,4.834367822
3206,4.783198284
3207,4.808274085
3208,4.797823028
3209,4.808899255
3210,4.787992179
3211,4.787963614
3212,4.794600088
3213,4.801667958
3214,4.783878114
3215,4.827909855
3216,4.816411928
3217,4.771781511
3218,4.812746062
3219,4.811829305
3220,4.784855552
3221,4.776943424
3222,4.798804329
3223,4.810763002
3224,4.825437531
3225,4.814287761
3226,4.822064154
3227,4.784990242
3228,4.810518526
3229,4.803609522
3230,4.805221593
3231,4.795159832
3232,4.810815837
3233,4.816500499
3234,4.798251867
3235,4.81633626
3236,4.787910272
3237,4.798077955
3238,4.794923059
3239,4.797084354
3240,4.814462646
3241,4.79896486
3242,4.817186778
3243,4.827348043
3244,4.791886955
3245,4.80088534
3246,4.792476388
3247,4.792175731
3248,4.816770618
3249,4.806954512
3250,4.791170941
3251,4.775039688
3252,4.79557923
3253,4.806629748
3254,4.787413068
3255,4.802798821
3256,4.798329752
3257,4.812284179
3258,4.777494211
3259,4.795136267
3260,4.798270685
3261,4.803400378
3262,4.805118417
3263,4.805435913
3264,4.789260908
3265,4.819563262
3266,4.824607895
3267,4.786052415
3268,4.791668624
3269,4.786177848
3270,4.805583773
3271,4.824637088
3272,4.819396664
3273,4.785976962
3274,4.817581916
3275,4.799134606
3276,4.803082708
3277,4.807880146
3278,4.798738115
3279,4.800846336
3280,4.804443108
3281,4.795730504
3282,4.805485657
3283,4.794749669
3284,4.795696677
3285,4.792024633
3286,4.813262027
3287,4.803574636
3288,4.810073485
3289,4.822067591
3290,4.802878974
3291,4.790594964
3292,4.790545445
3293,4.788388592
3294,4.811085394
3295,4.807918193
3296,4.815154051
3297,4.814191857
3298,4.793884974
3299,4.816552668
3300,4.778681541
3301,4.805318292
3302,4.776253865
3303,4.806938089
3304,4.792933453
3305,4.813037167
3306,4.794013476
3307,4.799162019
3308,4.80821308
3309,4.806307702
3310,4.821862532
3311,4.797505987
3312,4.809752949
3313,4.831987472
3314,4.782745912
3315,4.832270501
3316,4.792570442
3317,4.786341214
3318,4.777809898
3319,4.79565576
3320,4.797973643
3321,4.814738404
3322,4.821582294
3323,4.818158648
3324,4.78201505
3325,4.766468944
3326,4.789308432
3327,4.801138618
3328,4.827524047
3329,4.797341622
3330,4.77530986
3331,4.778689125
3332,4.804440415
3333,4.787298159
3334,4.791956742
3335,4.807280125
3336,4.819652772
3337,4.788427803
3338,4.823801373
3339,4.800969671
3340,4.789863534
3341,4.798985691
3342,4.810328511
3343,4.801698561
3344,4.795953391
3345,4.796091618
3346,4.810588697
3347,4.799479092
3348,4.796826553
3349,4.81080345
3350,4.80573747
3351,4.81665812
3352,4.830330312
3353,4.806882348
3354,4.810601637
3355,4.821262452
3356,4.842432722
3357,4.829700891
3358,4.82854875
3359,4.828597474
3360,4.82570196
3361,4.853847888
3362,4.849428683
3363,4.856369783
3364,4.864602122
3365,4.868547515
3366,4.856122758
3367,4.875108296
3368,4.882256656
3369,4.895465846
3370,4.903984336
3371,4.918121421
3372,4.934689019
3373,4.961462475
3374,4.961574898
3375,4.986425413
3376,5.020157666
3377,5.012175143
3378,5.020682579
3379,5.060626843
3380,5.055860668
3381,5.0663707
3382,5.095426693
3383,5.130835588
3384,5.165348604
3385,5.162685304
3386,5.154412003
3387,5.176513239
3388,5.196119025
3389,5.241642271
3390,5.275658029
3391,5.304063129
3392,5.310549858
3393,5.320410827
3394,5.321842885
3395,5.375452577
3396,5.387273215
3397,5.404055454
3398,5.448984995
3399,5.431264862
3400,5.450875628
3401,5.454365033
3402,5.480623956
3403,5.465075015
3404,5.488893835
3405,5.50075433
3406,5.510537976
3407,5.507133291
3408,5.509167092
3409,5.482368944
3410,5.521112083
3411,5.483519171
3412,5.489665145
3413,5.481251289
3414,5.467283869
3415,5.454077424
3416,5.427396833
3417,5.427245844
3418,5.420408881
3419,5.40265125
3420,5.385226034
3421,5.3532849
3422,5.341433461
3423,5.342221968
3424,5.275999062
3425,5.291362499
3426,5.258650882
3427,5.23342915
3428,5.224933335
3429,5.227638872
3430,5.188867208
3431,5.133938488
3432,5.140529558
3433,5.115388119
3434,5.097943659
3435,5.090145152
3436,5.081477817
3437,5.053876274
3438,5.000027637
3439,4.997901776
3440,5.019841057
3441,5.035688794
3442,4.981468735
3443,4.935551045
3444,4.975447446
3445,4.965687279
3446,4.932266429
3447,4.949030338
3448,4.944309159
3449,4.907858715
3450,4.925117406
3451,4.904268555
3452,4.920689344
3453,4.91370704
3454,4.947253202
3455,4.922199601
3456,4.921463369
3457,4.946906372
3458,4.934360705
3459,4.96634859
3460,4.934242009
3461,4.998135138
3462,5.00401503
3463,5.011958237
3464,5.038344618
3465,5.015036235
3466,5.038436733
3467,5.0567919
3468,5.068550614
3469,5.067450564
3470,5.124189772
3471,5.115976373
3472,5.137411912
3473,5.175055958
3474,5.203205107
3475,5.192345825
3476,5.23193461
3477,5.259141791
3478,5.252407448
3479,5.289048914
3480,5.310684116
3481,5.325950303
3482,5.322498433
3483,5.368395971
3484,5.405430195
3485,5.417922285
3486,5.403467512
3487,5.431560456
3488,5.450505618
3489,5.478794591
3490,5.44269141
3491,5.474935082
3492,5.500961285
3493,5.469855211
3494,5.507956883
3495,5.474798655
3496,5.501474298
3497,5.525201145
3498,5.507150461
3499,5.524466376
3500,5.499837242
3501,5.481673736
3502,5.466926203
3503,5.454874844
3504,5.432073549
3505,5.432765567
3506,5.441461363
3507,5.389830844
3508,5.376519215
3509,5.34639568
3510,5.363173734
3511,5.335187222
3512,5.303779115
3513,5.275287776
3514,5.286466217
3515,5.234980922
3516,5.223820071
3517,5.207715898
3518,5.191479499
3519,5.155175587
3520,5.158724491
3521,5.137660867
3522,5.084564456
3523,5.081113793
3524,5.080949372
3525,5.037694962
3526,5.028026061
3527,4.994874478
3528,4.992972149
3529,4.966546277
3530,4.971169518
3531,4.941149898
3532,4.951842674
3533,4.924703362
3534,4.903506332
3535,4.884024132
3536,4.897599885
3537,4.853752113
3538,4.887193869
3539,4.852232214
3540,4.865629751
3541,4.857845251
3542,4.857464751
3543,4.847847127
3544,4.839180594
3545,4.833895552
3546,4.81925386
3547,4.827045692
3548,4.812927616
3549,4.796534916
3550,4.79905004
3551,4.812871412
3552,4.796648575
3553,4.813065832
3554,4.830767655
3555,4.81504857
3556,4.790716357
3557,4.81624883
3558,4.787549536
3559,4.818395875
3560,4.800608589
3561,4.776568501
3562,4.833077257
3563,4.819192937
3564,4.788111763
3565,4.82645116
3566,4.788828911
3567,4.809962506
3568,4.810167702
3569,4.79070688
3570,4.805153159
3571,4.805038401
3572,4.79321656
3573,4.776862262
3574,4.809125859
3575,4.784021178
3576,4.804402953
3577,4.774605994
3578,4.795104201
3579,4.81289274
3580,4.799422924
3581,4.806684985
3582,4.804016114
3583,4.793632461
3584,4.803017179
3585,4.777141351
3586,4.787285186
3587,4.798620397
3588,4.802953279
3589,4.81743199
3590,4.819104281
3591,4.814297499
3592,4.764407589
3593,4.794443195
3594,4.786250486
3595,4.800915109
3596,4.794322057
3597,4.814615704
3598,4.791896105
3599,4.804984141
3600,4.821348618
3601,4.784687419
3602,4.802984502
3603,4.772661203
3604,4.798210099
3605,4.79233516
3606,4.818226032
3607,4.800779423
3608,4.795080806
3609,4.802622216
3610,4.826163944
3611,4.800246504
3612,4.808964152
3613,4.78504231
3614,4.810054704
3615,4.818950005
3616,4.803715939
3617,4.797814458
3618,4.7993384
3619,4.824894959
3620,4.816855114
3621,4.824317025
3622,4.824478925
3623,4.824057231
3624,4.788674539
3625,4.821121088
3626,4.787844728
3627,4.802134312
3628,4.792505197
3629,4.780390589
3630,4.776595554
3631,4.805519671
3632,4.801547697
3633,4.810704186
3634,4.800527921
3635,4.778554668
3636,4.823138492
3637,4.788796591
3638,4.799391583
3639,4.827758162
3640,4.786629769
3641,4.824930537
3642,4.81580195
3643,4.828926332
3644,4.805939459
3645,4.812690328
3646,4.800641697
3647,4.791078964
3648,4.82614202
3649,4.791585031
3650,4.794310761
3651,4.794659606
3652,4.810791184
3653,4.813859299
3654,4.797204058
3655,4.795526943
3656,4.802357333
3657,4.799530663
3658,4.807270733
3659,4.810251213
3660,4.821174384
3661,4.802543122
3662,4.781371219
3663,4.828681413
3664,4.826319175
3665,4.799787603
3666,4.77584604
3667,4.787077265
3668,4.782351887
3669,4.795279524
3670,4.769156299
3671,4.808231039
3672,4.801232153
3673,4.793193679
3674,4.825285211
3675,4.814107509
3676,4.79783779
3677,4.789171495
3678,4.786959783
3679,4.790842138
3680,4.780998202
3681,4.781014228
3682,4.799506553
3683,4.812322136
3684,4.773913035
3685,4.802043866
3686,4.78903661
3687,4.803143872
3688,4.800652493
3689,4.825465169
3690,4.805108679
3691,4.810209921
3692,4.791187811
3693,4.817197176
3694,4.771168846
3695,4.78214094
3696,4.793706837
3697,4.799062846
3698,4.805940577
3699,4.780724408
3700,4.773568909
3701,4.78861532
3702,4.805205028
3703,4.791917628
3704,4.78409995
3705,4.789926956
3706,4.809554774
3707,4.79636438
3708,4.806590903
3709,4.785145324
3710,4.803327113
3711,4.802330191
3712,4.809356724
3713,4.789818678
3714,4.806808253
3715,4.792939049
3716,4.809438798
3717,4.79942236
3718,4.803579268
3719,4.802737753
3720,4.785320441
3721,4.814993262
3722,4.780986661
3723,4.797050868
3724,4.789769065
3725,4.820061328
3726,4.805876879
3727,4.802442866
3728,4.788776473
3729,4.818987999
3730,4.818489638
3731,4.798092994
3732,4.76370072
3733,4.794778996
3734,4.788792537
3735,4.791338965
3736,4.791558368
3737,4.775989604
3738,4.815251104
3739,4.783348364
3740,4.816648926
3741,4.803085991
3742,4.817412865
3743,4.808592167
3744,4.81504743
3745,4.816625981
3746,4.780772703
3747,4.784944969
3748,4.805244971
3749,4.780770502
3750,4.788120558
3751,4.811792077
3752,4.805416518
3753,4.827930386
3754,4.783140769
3755,4.81534406
3756,4.821760324
3757,4.813713803
3758,4.801454667
3759,4.791598563
3760,4.814594011
3761,4.806784405
3762,4.809235713
3763,4.799031065
3764,4.781535857
3765,4.821552989
3766,4.78315376
3767,4.791971829
3768,4.820140058
3769,4.794009098
3770,4.812383111
3771,4.815153066
3772,4.79895278
3773,4.786437422
3774,4.792059864
3775,4.802750665
3776,4.827035336
3777,4.809711687
3778,4.794367107
3779,4.773322305
3780,4.811601546
3781,4.785547002
3782,4.788306176
3783,4.798295109
3784,4.800023936
3785,4.795868707
3786,4.805326856
3787,4.796528132
3788,4.818550481
3789,4.81013515
3790,4.810027407
3791,4.794248276
3792,4.779578603
3793,4.794912885
3794,4.811925161
3795,4.812648417
3796,4.82352692
3797,4.798446561
3798,4.815642266
3799,4.812613888
3800,4.808561795
3801,4.816044603
3802,4.78812768
3803,4.782237384
3804,4.815831238
3805,4.793308163
3806,4.795080075
3807,4.804575833
3808,4.788922529
3809,4.821509655
3810,4.787132678
3811,4.79003438
3812,4.808695289
3813,4.790180863
3814,4.782812637
3815,4.809571647
3816,4.812809527
3817,4.788003761
3818,4.811200322
3819,4.827014767
3820,4.779597564
3821,4.788306123
3822,4.8202444
3823,4.824438549
3824,4.805726809
3825,4.784610274
3826,4.814478862
3827,4.812514852
3828,4.782186079
3829,4.821684329
3830,4.807512413
3831,4.801919953
3832,4.822728527
3833,4.805892013
3834,4.818689914
3835,4.794432447
3836,4.806707711
3837,4.791468888
3838,4.813511278
3839,4.794258886
3840,4.795086924
3841,4.771605683
3842,4.825003803
3843,4.811366469
3844,4.80761856
3845,4.809348732
3846,4.82308875
3847,4.814623679
3848,4.779819931
3849,4.788378828
3850,4.79616524
3851,4.795462361
3852,4.808229677
3853,4.782352262
3854,4.798068571
3855,4.809881894
3856,4.760559639
3857,4.795278295
3858,4.808061466
3859,4.808715256
3860,4.814137165
3861,4.791209271
3862,4.795880667
3863,4.800814552
3864,4.797538319
3865,4.790195851
3866,4.811759918
3867,4.791372927
3868,4.794322239
3869,4.772508304
3870,4.828040677
3871,4.834769543
3872,4.7996351
3873,4.817960147
3874,4.811368228
3875,4.790657176
3876,4.809668893
3877,4.806643915
3878,4.794166607
3879,4.793462058
3880,4.818551171
3881,4.812370873
3882,4.807733387
3883,4.806753524
3884,4.791034197
3885,4.801288846
3886,4.806613352
3887,4.794753281
3888,4.818404587
3889,4.784230804
3890,4.790152505
3891,4.832739016
3892,4.784789116
3893,4.798062196
3894,4.787397623
3895,4.815837206
3896,4.800031501
3897,4.823316721
3898,4.797881397
3899,4.805985773
3900,4.800576959
3901,4.801692587
3902,4.815002099
3903,4.785239522
3904,4.78664037
3905,4.780956765
3906,4.827951568
3907,4.800955873
3908,4.819961626
3909,4.79733922
3910,4.773359905
3911,4.807353869
3912,4.800276232
3913,4.815531061
3914,4.820130858
3915,4.791365507
3916,4.789175824
3917,4.827852266
3918,4.793662461
3919,4.825366094
3920,4.806905574
3921,4.781043998
3922,4.783990788
3923,4.779181619
3924,4.782153402
3925,4.775158531
3926,4.81445725
3927,4.793693177
3928,4.780843873
3929,4.788104774
3930,4.780772558
3931,4.804997879
3932,4.79423558
3933,4.808800531
3934,4.800133816
3935,4.796879112
3936,4.75598661
3937,4.790818673
3938,4.789366687
3939,4.79150674
3940,4.784449781
3941,4.820716108
3942,4.769996687
3943,4.801948546
3944,4.773495125
3945,4.797357702
3946,4.80592533
3947,4.788083713
3948,4.813811161
3949,4.777514399
3950,4.802872326
3951,4.791371903
3952,4.78899254
3953,4.818293075
3954,4.825850076
3955,4.805049402
3956,4.769633374
3957,4.807068213
3958,4.802016548
3959,4.809221078
3960,4.782609139
3961,4.80989511
3962,4.811643814
3963,4.807741702
3964,4.78615243
3965,4.794931655
3966,4.788199661
3967,4.802025877
3968,4.775347618
3969,4.788507436
3970,4.777150971
3971,4.78473354
3972,4.821698085
3973,4.814377744
3974,4.804216956
3975,4.815062984
3976,4.79591005
3977,4.817065345
3978,4.77713728
3979,4.828442688
3980,4.818477586
3981,4.815229707
3982,4.791620622
3983,4.826632259
3984,4.782229621
3985,4.784376119
3986,4.765900583
3987,4.812369854
3988,4.788482938
3989,4.789737863
3990,4.778834448
3991,4.823095478
3992,4.791592643
3993,4.823102799
3994,4.782549079
3995,4.778112016
3996,4.812165172
3997,4.822998073
3998,4.792023865
3999,4.806147975
4000,4.799584876
