Raman Shift,Intensity
125.369,20112.0
126.758,20073.0
128.146,20258.0
129.534,20206.0
130.922,20531.0
132.309,20503.0
133.696,20632.0
135.083,20564.0
136.47,20881.0
137.857,20674.0
139.243,21093.0
140.63,21016.0
142.016,21120.0
143.401,21044.0
144.787,21178.0
146.172,21198.0
147.557,21437.0
148.942,21261.0
150.327,21440.0
151.711,21768.0
153.096,21418.0
154.48,21504.0
155.863,21474.0
157.247,21615.0
158.63,21632.705
160.013,21748.0
161.396,21766.0
162.779,21897.0
164.161,21947.895
165.544,21817.0
166.926,22067.0
168.308,22112.0
169.689,22149.0
171.07,22002.0
172.452,22320.0
173.833,22240.0
175.213,22326.0
176.594,22482.0
177.974,22332.0
179.354,22630.0
180.734,22694.0
182.114,22712.0
183.493,22902.0
184.872,23489.0
186.251,24004.0
187.63,25551.0
189.008,26658.0
190.387,28422.0
191.765,31256.0
193.143,33130.0
194.52,31146.0
195.898,27018.0
197.275,25278.0
198.652,24296.0
200.029,24069.0
201.405,23720.0
202.782,23402.0
204.158,23261.0
205.534,23223.348
206.909,23616.0
208.285,23422.0
209.66,23457.0
211.035,23663.0
212.41,23543.0
213.784,23462.0
215.159,23547.0
216.533,23474.0
217.907,23530.639
219.281,23667.0
220.654,23675.0
222.027,23801.0
223.4,23975.0
224.773,24014.0
226.146,24012.0
227.518,24011.0
228.891,24081.0
230.263,24046.0
231.634,23866.0
233.006,24182.0
234.377,24090.0
235.748,24241.0
237.119,24052.0
238.49,24124.0
239.86,24256.0
241.231,24276.0
242.601,24460.0
243.97,24265.0
245.34,24393.0
246.709,24366.0
248.079,24213.0
249.448,24650.0
250.816,24410.0
252.185,24501.0
253.553,24595.0
254.921,24395.0
256.289,24693.0
257.657,24637.0
259.024,24708.0
260.391,24797.0
261.758,24769.0
263.125,24684.0
264.492,24853.0
265.858,24931.0
267.224,24996.0
268.59,25129.0
269.956,24883.0
271.321,25212.0
272.687,25306.0
274.052,25093.0
275.416,24946.0
276.781,25500.0
278.146,25256.0
279.51,25328.0
280.874,25722.0
282.237,25498.0
283.601,25808.0
284.964,25713.0
286.327,25981.0
287.69,26407.0
289.053,26349.0
290.416,26113.0
291.778,26432.0
293.14,26005.0
294.502,26137.0
295.863,25854.0
297.225,25978.0
298.586,26057.0
299.947,25914.0
301.308,26195.0
302.668,25881.0
304.029,25912.0
305.389,26213.0
306.749,26261.0
308.108,26318.736
309.468,26475.0
310.827,26372.0
312.186,26267.0
313.545,26297.0
314.903,26315.0
316.262,26389.0
317.62,26412.0
318.978,26492.0
320.336,26317.0
321.693,26536.0
323.051,26585.0
324.408,26628.0
325.765,26432.0
327.121,26915.0
328.478,26648.0
329.834,26874.0
331.19,27043.0
332.546,27062.0
333.902,27149.129
335.257,27165.957
336.612,27136.0
337.967,27142.0
339.322,27098.0
340.677,27067.0
342.031,27372.0
343.385,27228.0
344.739,27409.0
346.093,27353.0
347.446,27284.0
348.799,27392.0
350.153,27635.0
351.505,27812.0
352.858,28161.0
354.21,28299.0
355.563,29022.0
356.915,29544.0
358.267,30358.0
359.618,31145.0
360.969,31590.0
362.321,31463.0
363.672,30428.0
365.022,29736.0
366.373,29068.0
367.723,28400.0
369.073,28620.0
370.423,28290.0
371.773,28361.0
373.122,27989.0
374.471,28186.0
375.821,28672.0
377.169,28230.0
378.518,28823.0
379.866,28412.0
381.215,28480.0
382.563,28700.0
383.91,28445.0
385.258,28361.0
386.605,28464.0
387.952,28692.0
389.299,28284.0
390.646,28492.0
391.992,28582.0
393.339,28490.0
394.685,28541.0
396.031,28572.0
397.376,28620.854
398.722,28582.0
400.067,28822.0
401.412,28664.0
402.757,28794.0
404.101,29078.0
405.446,28948.0
406.79,28822.0
408.134,29056.0
409.478,29056.0
410.821,29376.0
412.165,29209.0
413.508,28972.0
414.851,29461.0
416.193,29384.0
417.536,29213.0
418.878,29248.0
420.22,29432.0
421.562,29457.0
422.904,29209.0
424.245,29546.0
425.586,29994.0
426.927,29928.0
428.268,30336.0
429.609,30400.0
430.949,30147.0
432.289,30634.0
433.629,30704.0
434.969,30245.0
436.309,30083.0
437.648,29885.0
438.987,29733.678
440.326,30042.0
441.665,29713.0
443.003,29924.0
444.342,30168.0
445.68,30018.0
447.018,30164.0
448.355,30478.0
449.693,30201.0
451.03,30506.0
452.367,30321.0
453.704,30645.0
455.041,30102.0
456.377,30290.0
457.713,30376.0
459.049,30334.0
460.385,30554.0
461.721,30576.0
463.056,30977.0
464.391,30961.0
465.726,31024.0
467.061,31567.0
468.395,31301.0
469.73,31049.0
471.064,31238.0
472.398,31238.0
473.731,31586.0
475.065,30678.0
476.398,30881.0
477.731,30867.0
479.064,31164.0
480.397,31042.0
481.729,30970.0
483.062,31146.0
484.394,30881.0
485.725,31162.0
487.057,31096.0
488.389,31304.0
489.72,31288.0
491.051,31046.0
492.382,31488.0
493.712,31228.0
495.043,31565.0
496.373,31452.0
497.703,31428.0
499.032,31462.0
500.362,31770.0
501.691,31549.0
503.02,31896.0
504.349,31660.0
505.678,31880.0
507.007,31942.0
508.335,31710.0
509.663,31925.0
510.991,32083.0
512.319,31993.0
513.646,32074.0
514.973,32368.0
516.3,32160.0
517.627,32403.0
518.954,32245.0
520.28,32026.0
521.607,32288.0
522.933,32282.0
524.259,32337.0
525.584,32360.0
526.91,32286.0
528.235,32640.0
529.56,32654.0
530.885,32610.0
532.209,32329.0
533.534,32430.0
534.858,32459.543
536.182,32617.0
537.506,32717.0
538.829,32787.0
540.152,32900.0
541.476,32768.0
542.799,33164.0
544.121,32684.0
545.444,33122.0
546.766,33092.0
548.088,33088.0
549.41,33060.0
550.732,33133.0
552.053,33106.645
553.375,33182.0
554.696,33088.0
556.017,33364.0
557.337,33324.0
558.658,33566.0
559.978,33196.0
561.298,33187.0
562.618,33750.0
563.938,33297.0
565.257,33433.0
566.576,33824.0
567.895,33448.0
569.214,33742.0
570.533,33827.0
571.851,33793.0
573.17,33768.0
574.488,33770.844
575.805,33935.0
577.123,33731.0
578.44,33770.0
579.758,33794.0
581.075,34241.0
582.391,33988.0
583.708,34373.0
585.024,34060.0
586.341,34067.0
587.657,34477.0
588.972,34732.0
590.288,34650.0
591.603,34630.0
592.918,34739.867
594.233,34567.0
595.548,34724.0
596.863,34799.0
598.177,34568.0
599.491,34828.0
600.805,34769.0
602.119,34853.0
603.432,34947.0
604.746,35078.0
606.059,34881.0
607.372,34930.0
608.685,35031.0
609.997,35019.047
611.309,35088.0
612.621,35180.0
613.933,35240.0
615.245,35314.0
616.557,35320.0
617.868,35693.0
619.179,35403.0
620.49,35576.0
621.801,35338.0
623.111,35912.0
624.421,35567.0
625.731,36110.0
627.041,35489.0
628.351,36093.0
629.66,35748.0
630.97,35770.0
632.279,36435.0
633.588,36096.0
634.896,36259.0
636.205,36049.0
637.513,36201.0
638.821,36120.0
640.129,36466.0
641.437,36561.0
642.744,36553.0
644.051,36289.0
645.358,36329.0
646.665,36723.0
647.972,36954.0
649.278,36762.0
650.584,37057.0
651.89,36747.0
653.196,37272.0
654.502,37174.0
655.807,37376.0
657.113,37064.0
658.418,37518.0
659.722,37708.0
661.027,37711.0
662.331,37984.0
663.636,38364.0
664.94,38786.0
666.244,38792.0
667.547,40080.0
668.851,40594.0
670.154,42088.0
671.457,42977.0
672.76,44401.0
674.062,45776.0
675.365,45857.0
676.667,45678.0
677.969,44928.0
679.271,43716.0
680.572,42382.0
681.874,41301.0
683.175,40689.0
684.476,40301.0
685.777,39541.0
687.077,39385.0
688.378,39035.0
689.678,38928.0
690.978,39005.0
692.278,38714.0
693.577,38709.895
694.877,38992.0
696.176,38493.0
697.475,38709.0
698.774,38544.0
700.072,39020.0
701.371,38785.0
702.669,38708.0
703.967,38321.0
705.265,38960.0
706.562,38989.0
707.86,38762.0
709.157,38500.0
710.454,39232.0
711.751,38697.0
713.047,39159.0
714.344,38966.0
715.64,39438.0
716.936,39410.508
718.232,39353.0
719.527,39356.0
720.823,39326.312
722.118,39216.0
723.413,39348.0
724.708,39330.0
726.002,39446.0
727.297,39686.0
728.591,39177.0
729.885,39529.0
731.179,39997.0
732.472,39917.0
733.766,39578.0
735.059,39564.0
736.352,39872.0
737.645,39993.0
738.937,40012.0
740.23,40024.0
741.522,40104.293
742.814,40264.0
744.106,40217.0
745.397,40193.0
746.689,40264.0
747.98,40050.0
749.271,40334.0
750.562,40180.0
751.853,40739.0
753.143,40272.0
754.433,40584.0
755.723,40560.0
757.013,40580.0
758.303,40603.191
759.592,40494.0
760.881,40568.0
762.17,40737.0
763.459,40949.0
764.748,40862.0
766.036,40761.0
767.325,41419.0
768.613,40849.0
769.901,41303.0
771.188,41372.0
772.476,40946.0
773.763,41738.0
775.05,41034.0
776.337,41548.0
777.624,41434.0
778.91,41504.0
780.196,41534.0
781.482,42025.0
782.768,41881.0
784.054,42129.0
785.339,42130.0
786.625,42504.0
787.91,42094.0
789.195,42404.0
790.479,42595.0
791.764,42379.0
793.048,42578.0
794.332,42426.0
795.616,42398.0
796.9,42539.0
798.183,42718.0
799.467,42299.0
800.75,42350.0
802.033,42587.0
803.316,42250.0
804.598,42752.0
805.88,42243.0
807.163,42962.0
808.445,42641.0
809.726,42793.0
811.008,42842.0
812.289,42870.0
813.57,42664.0
814.851,43123.0
816.132,43290.0
817.413,42987.0
818.693,43096.0
819.973,43632.0
821.253,43288.0
822.533,43308.0
823.813,43697.0
825.092,43474.0
826.371,43352.0
827.65,43796.0
828.929,43496.0
830.208,44080.0
831.486,44050.0
832.764,43532.0
834.042,43894.0
835.32,44041.0
836.598,43914.0
837.875,44151.0
839.152,44161.0
840.429,44086.0
841.706,44632.0
842.983,44233.0
844.259,44368.0
845.536,44646.0
846.812,44128.0
848.088,44730.0
849.363,44141.0
850.639,44806.0
851.914,44698.0
853.189,44366.0
854.464,44781.0
855.739,44914.0
857.013,45177.0
858.288,45264.91
859.562,44827.0
860.836,45155.0
862.11,45283.0
863.383,44845.0
864.656,45713.0
865.93,45068.0
867.203,45387.0
868.475,45525.0
869.748,45477.0
871.02,45368.0
872.292,45593.0
873.564,45561.0
874.836,45757.0
876.108,45582.0
877.379,45702.0
878.65,46096.0
879.922,45969.0
881.192,46006.0
882.463,46058.0
883.733,46081.0
885.004,46030.0
886.274,46262.0
887.544,46178.0
888.813,46627.0
890.083,46193.0
891.352,46502.0
892.621,46737.0
893.89,46597.0
895.159,46636.0
896.427,46451.0
897.695,46539.0
898.964,46621.156
900.232,46630.0
901.499,46846.0
902.767,46936.0
904.034,46916.0
905.301,47020.0
906.568,47084.0
907.835,47129.316
909.102,47342.0
910.368,47345.0
911.634,47316.0
912.9,47602.0
914.166,47517.0
915.432,47760.0
916.697,47499.0
917.962,47280.0
919.227,47910.0
920.492,48010.0
921.757,48049.0
923.021,47725.0
924.285,48182.0
925.55,48404.0
926.813,47998.0
928.077,48317.0
929.341,48136.0
930.604,48274.0
931.867,48672.0
933.13,48269.0
934.393,48362.0
935.655,48848.0
936.918,48276.0
938.18,49041.0
939.442,48360.0
940.703,48493.0
941.965,48932.0
943.226,48810.0
944.488,49103.879
945.749,48519.0
947.009,49320.0
948.27,49120.0
949.53,48932.0
950.791,49180.0
952.051,49235.0
953.311,49403.0
954.57,49432.301
955.83,49410.0
957.089,49361.0
958.348,49452.0
959.607,49256.0
960.866,49404.0
962.124,49338.0
963.383,49645.0
964.641,49499.0
965.899,49812.0
967.156,50045.0
968.414,49688.0
969.671,50038.0
970.928,50080.0
972.185,49693.0
973.442,50125.0
974.699,49968.0
975.955,50392.0
977.211,50506.0
978.468,49793.0
979.723,50778.0
980.979,50352.0
982.234,50240.0
983.49,50980.0
984.745,50097.0
986.0,50720.0
987.254,50894.0
988.509,50510.0
989.763,50956.0
991.017,50944.0
992.271,50910.0
993.525,51098.0
994.779,51248.0
996.032,51385.0
997.285,51205.0
998.538,51572.0
999.791,50912.0
1001.044,51872.0
1002.296,51072.0
1003.548,51738.0
1004.8,51479.0
1006.052,51788.0
1007.304,51843.0
1008.555,51669.0
1009.807,51661.0
1011.058,51952.0
1012.309,52363.0
1013.559,52298.0
1014.81,52432.0
1016.06,52217.0
1017.31,52588.0
1018.56,52795.0
1019.81,52170.0
1021.06,52482.0
1022.309,52932.0
1023.558,52218.0
1024.807,52844.0
1026.056,52528.0
1027.305,52566.0
1028.553,52588.0
1029.801,52476.387
1031.049,52485.254
1032.297,52483.0
1033.545,52503.0
1034.793,52602.824
1036.04,52866.0
1037.287,53126.0
1038.534,53234.0
1039.781,53627.0
1041.027,53600.0
1042.274,53316.0
1043.52,53645.0
1044.766,53571.109
1046.012,53832.0
1047.257,53957.0
1048.503,54308.0
1049.748,54947.0
1050.993,54764.0
1052.238,55129.0
1053.483,54968.0
1054.727,54480.0
1055.971,53940.0
1057.216,54710.0
1058.459,54480.0
1059.703,54181.0
1060.947,54040.0
1062.19,54356.0
1063.433,54072.0
1064.676,54274.0
1065.919,54179.0
1067.162,54275.0
1068.404,55028.0
1069.646,53872.0
1070.888,54485.0
1072.13,54754.0
1073.372,54291.0
1074.613,54648.0
1075.855,54674.0
1077.096,54440.0
1078.337,54428.0
1079.578,55104.0
1080.818,54936.0
1082.059,54988.0
1083.299,54812.0
1084.539,54805.277
1085.779,54912.0
1087.018,54764.0
1088.258,54870.0
1089.497,54880.0
1090.736,55152.0
1091.975,55189.0
1093.213,55240.0
1094.452,55003.0
1095.69,55544.0
1096.928,55192.0
1098.166,55112.0
1099.404,55337.0
1100.642,55616.0
1101.879,55240.0
1103.116,55756.0
1104.353,55436.0
1105.59,55689.0
1106.827,55467.0
1108.063,55886.0
1109.299,55289.0
1110.536,55978.0
1111.771,55744.0
1113.007,55744.0
1114.243,56274.0
1115.478,55968.0
1116.713,56092.0
1117.948,56101.0
1119.183,56205.0
1120.418,55837.0
1121.652,56193.0
1122.886,56659.0
1124.12,56356.0
1125.354,56643.0
1126.588,56291.0
1127.821,56472.0
1129.055,56499.0
1130.288,56828.0
1131.521,56801.0
1132.753,56787.0
1133.986,56416.0
1135.218,56790.0
1136.45,57348.0
1137.682,56508.0
1138.914,57394.0
1140.146,56980.0
1141.377,56977.0
1142.609,57014.0
1143.84,57152.0
1145.071,57256.0
1146.301,57595.0
1147.532,57484.0
1148.762,57404.0
1149.992,57632.0
1151.222,57414.0
1152.452,57851.0
1153.682,57915.0
1154.911,57433.0
1156.14,58196.0
1157.369,57648.0
1158.598,57756.0
1159.827,57916.0
1161.055,58336.0
1162.284,58195.0
1163.512,58059.0
1164.74,58242.0
1165.967,58672.0
1167.195,58056.0
1168.422,58908.0
1169.65,58609.0
1170.877,58614.0
1172.103,58520.0
1173.33,58666.0
1174.557,58698.0
1175.783,59096.0
1177.009,59011.0
1178.235,58448.0
1179.461,59404.0
1180.686,58908.0
1181.912,58889.0
1183.137,59435.0
1184.362,59680.0
1185.587,59348.0
1186.811,59424.0
1188.036,59769.0
1189.26,59638.0
1190.484,59587.0
1191.708,60005.0
1192.932,60308.0
1194.155,59662.0
1195.378,59792.0
1196.602,60091.0
1197.825,60424.0
1199.047,60185.0
1200.27,60652.0
1201.492,60112.0
1202.715,60962.0
1203.937,60034.0
1205.159,60888.0
1206.38,60626.0
1207.602,60667.0
1208.823,60428.0
1210.044,60777.0
1211.265,61094.0
1212.486,60940.0
1213.707,61096.0
1214.927,61028.0
1216.147,61392.0
1217.367,61065.0
1218.587,61530.0
1219.807,61257.0
1221.027,61188.0
1222.246,61542.0
1223.465,60956.0
