Raman Shift,Intensity
90.74744,756.3912
91.22955,755.3524
91.71167,754.014
92.19379,756.381
92.6759,761.8226
93.15802,762.4367
93.64014,748.697
94.12225,725.34
94.60437,705.6866
95.08649,694.8424
95.5686,688.5564
96.05072,676.988
96.53284,660.5843
97.01495,642.6865
97.49707,625.5933
97.97919,609.183
98.4613,594.371
98.94342,581.1332
99.42554,569.3986
99.90765,560.2568
100.3898,554.4583
100.8719,549.4407
101.354,541.0196
101.8361,528.1053
102.3182,515.8201
102.8004,505.9489
103.2825,498.9068
103.7646,492.4926
104.2467,486.2987
104.7288,480.9127
105.2109,477.8222
105.6931,477.4017
106.1752,478.4957
106.6573,480.7297
107.1394,485.2522
107.6215,489.0673
108.1036,493.6755
108.5858,498.2193
109.0679,497.4641
109.55,487.0081
110.0321,474.6852
110.5142,464.7381
110.9963,457.7457
111.4785,452.3516
111.9606,448.8613
112.4427,447.1849
112.9248,445.6648
113.4069,444.1365
113.889,442.6385
114.3712,441.1837
114.8533,439.0694
115.3354,437.6411
115.8175,438.0259
116.2996,440.5181
116.7817,441.5544
117.2639,438.9312
117.746,434.4005
118.2281,430.1796
118.7102,427.9875
119.1923,425.7032
119.6744,421.6886
120.1566,415.305
120.6387,409.3028
121.1208,405.2563
121.6029,402.8252
122.085,401.3953
122.5671,400.0148
123.0493,399.7348
123.5314,402.4765
124.0135,410.048
124.4956,416.9067
124.9777,416.8269
125.4598,411.1008
125.942,404.5856
126.4241,399.7137
126.9062,396.275
127.3883,393.8847
127.8704,392.4227
128.3525,392.0195
128.8347,393.315
129.3168,396.2386
129.7989,399.3651
130.281,401.7977
130.7631,403.5452
131.2452,404.7429
131.7274,405.4341
132.2095,405.5957
132.6916,404.9535
133.1737,403.4037
133.6558,401.7584
134.1379,400.702
134.6201,400.2349
135.1022,400.2189
135.5843,400.7444
136.0664,401.7355
136.5485,402.5338
137.0306,403.0336
137.5128,403.606
137.9949,404.6795
138.477,406.2656
138.9591,408.358
139.4412,411.351
139.9233,415.3832
140.4055,418.1032
140.8876,419.7079
141.3697,419.7614
141.8518,417.0923
142.3339,410.332
142.816,403.9489
143.2982,399.5165
143.7803,397.4041
144.2624,396.2733
144.7445,396.5974
145.2266,397.7609
145.7087,398.2607
146.1909,397.2798
146.673,396.691
147.1551,397.3022
147.6372,400.0878
148.1193,402.4365
148.6014,404.3194
149.0836,405.7679
149.5657,406.9425
150.0478,407.5031
150.5299,408.0399
151.012,408.8141
151.4941,409.3575
151.9763,410.6638
152.4584,413.28
152.9405,416.8813
153.4226,419.8895
153.9047,421.8651
154.3868,423.4214
154.869,424.892
155.3511,425.6075
155.8332,426.9881
156.3153,430.0757
156.7974,434.5144
157.2795,437.4231
157.7617,436.4208
158.2438,434.603
158.7259,434.2069
159.208,437.3232
159.6901,440.4203
160.1722,442.3216
160.6544,443.0728
161.1365,443.9137
161.6186,445.1894
162.1007,446.7843
162.5828,448.623
163.0649,450.7653
163.5471,453.0531
164.0292,455.7333
164.5113,458.8076
164.9934,461.1002
165.4755,461.452
165.9576,460.8253
166.4398,460.4101
166.9219,460.6469
167.404,461.2477
167.8861,462.0735
168.3682,463.1263
168.8503,464.2789
169.3325,465.1815
169.8146,466.1683
170.2967,467.7588
170.7788,470.7864
171.2609,474.2091
171.743,477.0694
172.2252,479.2995
172.7073,481.2158
173.1894,482.7589
173.6715,484.1722
174.1536,485.9365
174.6357,488.1533
175.1179,490.9288
175.6,494.7366
176.0821,499.795
176.5642,504.6703
177.0463,507.4645
177.5284,508.8023
178.0106,510.554
178.4927,514.0531
178.9748,518.5545
179.4569,522.6813
179.939,526.2633
180.4211,529.7865
180.9033,534.0011
181.3854,538.7931
181.8675,543.4854
182.3496,547.5301
182.8317,551.1999
183.3138,555.2889
183.796,559.7812
184.2781,564.8699
184.7602,570.9235
185.2423,577.9109
185.7244,585.0916
186.2065,592.4834
186.6887,599.8315
187.1708,606.25
187.6529,611.5032
188.135,616.0505
188.6171,620.2489
189.0992,624.1512
189.5814,628.4454
190.0635,633.688
190.5456,639.838
191.0277,646.1049
191.5098,652.473
191.9919,658.8774
192.4741,664.9365
192.9562,670.6027
193.4383,676.4318
193.9204,682.8597
194.4025,689.8425
194.8846,696.6083
195.3668,702.985
195.8489,709.1836
196.331,715.7029
196.8131,722.5587
197.2952,729.5674
197.7773,736.6551
198.2595,743.7854
198.7416,751.2359
199.2237,759.0283
199.7058,767.0863
200.1879,775.1105
200.67,783.1906
201.1522,791.2068
201.6343,799.0617
202.1164,806.7352
202.5985,814.5775
203.0806,822.6767
203.5627,830.8751
204.0449,838.7695
204.527,846.5832
205.0091,853.337
205.4912,858.0356
205.9733,860.3109
206.4554,862.774
206.9376,865.9606
207.4197,869.4685
207.9018,871.8835
208.3839,873.1063
208.866,873.5002
209.3481,873.4591
209.8303,873.2193
210.3124,871.4061
210.7945,867.3104
211.2766,861.6442
211.7587,857.1263
212.2408,853.9156
212.723,851.5186
213.2051,849.7228
213.6872,848.7479
214.1693,847.4842
214.6514,845.4305
215.1335,842.9814
215.6157,842.2562
216.0978,843.847
216.5799,846.0092
217.062,847.558
217.5441,848.1223
218.0262,849.1483
218.5084,850.8859
218.9905,853.2166
219.4726,855.3917
219.9547,857.2333
220.4368,859.2953
220.9189,862.051
221.4011,866.0469
221.8832,869.4011
222.3653,871.9435
222.8474,873.7525
223.3295,875.1646
223.8116,875.8389
224.2938,876.6182
224.7759,877.9711
225.258,879.8797
225.7401,882.4095
226.2222,885.8275
226.7043,889.8595
227.1865,893.4574
227.6686,896.1013
228.1507,898.9609
228.6328,902.6996
229.1149,907.5896
229.597,912.6884
230.0792,917.8976
230.5613,923.2823
231.0434,928.8059
231.5255,933.9109
232.0076,939.8894
232.4897,947.6413
232.9719,958.5331
233.454,968.0286
233.9361,975.2363
234.4182,981.0364
234.9003,988.6817
235.3824,999.0428
235.8646,1010.01
236.3467,1020.595
236.8288,1030.731
237.3109,1040.597
237.793,1050.053
238.2751,1059.276
238.7573,1068.459
239.2394,1077.278
239.7215,1086.501
240.2036,1097.008
240.6857,1111.1
241.1678,1121.028
241.65,1125.287
242.1321,1125.764
242.6142,1127.451
243.0963,1131.742
243.5784,1135.158
244.0605,1136.0
244.5427,1133.017
245.0248,1130.856
245.5069,1130.527
245.989,1130.625
246.4711,1128.117
246.9532,1122.598
247.4354,1115.141
247.9175,1106.087
248.3996,1095.102
248.8817,1083.552
249.3638,1071.633
249.8459,1059.065
250.3281,1045.298
250.8102,1030.064
251.2923,1014.061
251.7744,997.1828
252.2565,979.3094
252.7386,961.7178
253.2208,944.2203
253.7029,927.1551
254.185,910.856
254.6671,895.7849
255.1492,880.4788
255.6313,864.5742
256.1135,848.0778
256.5956,831.1293
257.0777,813.4646
257.5598,795.7792
258.0419,779.1534
258.524,764.2338
259.0062,749.2424
259.4883,733.3306
259.9704,716.6312
260.4525,701.172
260.9346,687.2935
261.4167,674.4649
261.8989,662.2017
262.381,650.7772
262.8631,639.4814
263.3452,628.1589
263.8273,616.6829
264.3094,606.2057
264.7916,596.8067
265.2737,588.0359
265.7558,579.2723
266.2379,570.4222
266.72,562.1146
267.2021,554.4816
267.6843,547.4944
268.1664,540.4717
268.6485,533.2483
269.1306,526.3444
269.6127,520.5071
270.0948,516.1157
270.577,511.0707
271.0591,504.798
271.5412,497.663
272.0233,491.1898
272.5054,485.4729
272.9875,480.4283
273.4697,476.1931
273.9518,472.8625
274.4339,469.4911
274.916,466.0552
275.3981,462.4743
275.8802,458.1222
276.3624,452.7423
276.8445,447.8797
277.3266,444.8901
277.8087,443.95
278.2908,442.2577
278.7729,439.4834
279.2551,435.9717
279.7372,432.5185
280.2193,429.1245
280.7014,425.7149
281.1835,422.1849
281.6656,418.538
282.1478,414.874
282.6299,411.047
283.112,407.506
283.5941,405.2723
284.0762,404.4077
284.5583,403.447
285.0405,401.5528
285.5226,398.8508
286.0047,396.5256
286.4868,394.6315
286.9689,392.9533
287.451,391.2561
287.9332,389.5366
288.4153,387.7262
288.8974,385.662
289.3795,383.4924
289.8616,381.9262
290.3438,381.0141
290.8259,380.3486
291.308,379.5854
291.7901,378.7192
292.2722,377.649
292.7543,376.175
293.2365,374.5631
293.7186,373.5119
294.2007,373.0367
294.6828,372.7269
295.1649,372.1281
295.647,371.3847
296.1292,371.0251
296.6113,371.4767
297.0934,372.0639
297.5755,371.4727
298.0576,369.8099
298.5397,368.2459
299.0219,367.9062
299.504,368.2629
299.9861,368.0932
300.4682,366.9393
300.9503,365.6556
301.4324,365.2651
301.9146,365.6487
302.3967,366.2817
302.8788,367.2455
303.3609,368.1355
303.843,368.1419
304.3251,366.9049
304.8073,365.7345
305.2894,366.1493
305.7715,367.5975
306.2536,368.7492
306.7357,368.5976
307.2178,367.9586
307.7,367.8084
308.1821,368.3
308.6642,368.4449
309.1463,366.8121
309.6284,364.4647
310.1105,363.0428
310.5927,364.0934
311.0748,365.7191
311.5569,366.8765
312.039,367.5124
312.5211,367.2964
313.0032,365.1825
313.4854,362.4502
313.9675,360.487
314.4496,360.4359
314.9317,360.6551
315.4138,360.3372
315.8959,359.5795
316.3781,358.9551
316.8602,359.2569
317.3423,359.4867
317.8244,358.8512
318.3065,356.3959
318.7886,354.177
319.2708,352.8797
319.7529,352.3432
320.235,352.1145
320.7171,352.4627
321.1992,352.7809
321.6813,352.7316
322.1635,352.0742
322.6456,351.4872
323.1277,350.9383
323.6098,350.5585
324.0919,350.5705
324.574,351.2287
325.0562,352.0785
325.5383,353.1941
326.0204,354.8698
326.5025,355.5995
326.9846,354.3655
327.4667,352.5209
327.9489,351.4867
328.431,351.5359
328.9131,352.1264
329.3952,353.5877
329.8773,355.9694
330.3594,357.1992
330.8416,356.1178
331.3237,354.8575
331.8058,354.9178
332.2879,356.753
332.77,359.2408
333.2521,362.9803
333.7343,367.4206
334.2164,369.673
334.6985,368.4023
335.1806,366.9798
335.6627,367.3798
336.1448,370.4951
336.627,372.5597
337.1091,372.9585
337.5912,372.6296
338.0733,373.6324
338.5554,376.3426
339.0375,379.1368
339.5197,381.2796
340.0018,382.6939
340.4839,384.626
340.966,387.1402
341.4481,389.9512
341.9302,392.6265
342.4124,395.1696
342.8945,397.8144
343.3766,400.6898
343.8587,403.7234
344.3408,406.6904
344.8229,409.554
345.3051,412.4995
345.7872,415.8481
346.2693,419.4921
346.7514,422.7858
347.2335,425.4447
347.7156,427.8431
348.1978,430.351
348.6799,433.0241
349.162,436.5315
349.6441,442.3116
350.1262,449.2067
350.6083,454.1539
351.0905,456.4586
351.5726,458.1926
352.0547,462.0873
352.5368,467.4821
353.0189,472.3742
353.501,475.207
353.9832,477.2393
354.4653,479.9868
354.9474,483.5544
355.4295,487.3486
355.9116,490.7469
356.3937,494.1249
356.8759,498.006
357.358,504.0704
357.8401,509.5048
358.3222,511.7587
358.8043,511.3334
359.2864,511.0917
359.7686,513.303
360.2507,515.9707
360.7328,517.2512
361.2149,515.8004
361.697,514.5167
362.1791,515.1397
362.6613,516.7902
363.1434,517.4504
363.6255,516.5261
364.1076,514.4208
364.5897,511.0204
365.0718,505.9051
365.554,501.1491
366.0361,497.8025
366.5182,494.7831
367.0003,490.7932
367.4824,485.0629
367.9645,479.0046
368.4467,472.7426
368.9288,466.3731
369.4109,460.2014
369.893,454.7268
370.3751,449.0802
370.8572,442.5934
371.3394,434.5391
371.8215,426.9839
372.3036,419.9967
372.7857,413.6153
373.2678,408.0496
373.7499,403.9287
374.2321,399.4044
374.7142,393.3947
375.1963,385.2277
375.6784,378.3254
376.1605,373.0298
376.6426,368.6123
377.1248,364.1329
377.6069,359.4816
378.089,355.1323
378.5711,351.3192
379.0532,347.9629
379.5353,344.7752
380.0175,341.7442
380.4996,338.8007
380.9817,335.7165
381.4638,332.5739
381.9459,330.024
382.428,328.4302
382.9102,327.2236
383.3923,325.49
383.8744,323.2153
384.3565,320.4215
384.8386,316.4094
385.3207,312.0011
385.8029,309.2369
386.285,308.4963
386.7671,308.2831
387.2492,307.1307
387.7313,305.3211
388.2134,303.5157
388.6956,301.8512
389.1777,300.4594
389.6598,299.4691
390.1419,298.8843
390.624,298.5954
391.1061,298.9139
391.5883,299.3358
392.0704,299.2938
392.5525,298.1755
393.0346,297.2086
393.5167,297.2243
393.9988,297.8581
394.481,298.0812
394.9631,296.8732
395.4452,295.6816
395.9273,295.2689
396.4094,295.9177
396.8915,296.7187
397.3737,297.703
397.8558,298.682
398.3379,299.4233
398.82,299.7746
399.3021,300.0117
399.7842,300.1393
400.2664,300.1552
400.7485,300.2208
401.2306,300.3422
401.7127,300.4986
402.1948,300.6518
402.6769,300.6657
403.1591,300.9488
403.6412,301.4607
404.1233,302.2807
404.6054,303.7638
405.0875,306.1771
405.5696,308.4264
406.0518,310.0432
406.5339,311.0156
407.016,311.7562
407.4981,312.1214
407.9802,312.6535
408.4623,314.2319
408.9445,316.8395
409.4266,319.0084
409.9087,320.2184
410.3908,320.8719
410.8729,321.8843
411.355,323.2547
411.8372,324.687
412.3193,325.9872
412.8014,327.2038
413.2835,328.3653
413.7656,329.3926
414.2477,330.7195
414.7299,332.9909
415.212,335.9325
415.6941,338.8244
416.1762,341.4388
416.6583,343.8058
417.1404,345.813
417.6226,347.4933
418.1047,349.3076
418.5868,351.5775
419.0689,354.0907
419.551,356.6708
420.0331,359.0695
420.5153,361.7728
420.9974,365.2142
421.4795,369.1073
421.9616,372.5848
422.4437,374.78
422.9258,377.1208
423.408,380.2858
423.8901,384.6218
424.3722,388.8198
424.8543,392.5884
425.3364,396.282
425.8185,400.2079
426.3007,404.2857
426.7828,408.7892
427.2649,413.7793
427.747,419.2119
428.2291,425.0084
428.7112,431.1898
429.1934,437.6204
429.6755,444.4709
430.1576,451.8697
430.6397,458.7096
431.1218,464.6772
431.6039,470.499
432.0861,477.5211
432.5682,485.8145
433.0503,494.2547
433.5324,502.5379
434.0145,510.7189
434.4966,518.851
434.9788,526.9244
435.4609,535.3563
435.943,544.7332
436.4251,554.8588
436.9072,565.1934
437.3893,575.8672
437.8715,586.3452
438.3536,595.668
438.8357,604.2454
439.3178,613.2172
439.7999,623.3275
440.282,634.0331
440.7642,644.7844
441.2463,655.6364
441.7284,666.4697
442.2105,677.9384
442.6926,689.1213
443.1747,699.124
443.6569,707.2609
444.139,714.7333
444.6211,721.5844
445.1032,728.003
445.5853,734.3198
446.0674,740.5085
446.5496,746.7585
447.0317,753.1544
447.5138,759.7858
447.9959,766.4112
448.478,772.8657
448.9601,779.5001
449.4423,786.6844
449.9244,794.0275
450.4065,802.6177
450.8886,812.6971
451.3707,824.1075
451.8528,836.7081
452.335,850.8199
452.8171,865.3715
453.2992,879.5755
453.7813,893.4575
454.2634,909.5826
454.7455,928.1956
455.2277,948.8164
455.7098,971.8898
456.1919,996.9093
456.674,1022.031
457.1561,1045.726
457.6382,1069.362
458.1204,1095.064
458.6025,1122.749
459.0846,1150.021
459.5667,1174.792
460.0488,1198.74
460.5309,1224.481
461.0131,1252.666
461.4952,1280.949
461.9773,1308.769
462.4594,1335.02
462.9415,1358.445
463.4236,1378.849
463.9058,1395.68
464.3879,1409.47
464.87,1419.798
465.3521,1424.963
465.8342,1424.002
466.3163,1418.192
466.7985,1408.243
467.2806,1394.385
467.7627,1375.979
468.2448,1352.604
468.7269,1325.062
469.209,1294.086
469.6912,1258.657
470.1733,1220.956
470.6554,1181.034
471.1375,1139.074
471.6196,1096.609
472.1017,1053.165
472.5839,1010.411
473.066,968.3438
473.5481,927.1423
474.0302,887.4491
474.5123,849.2076
474.9944,812.8083
475.4766,778.9455
475.9587,747.5185
476.4408,717.7397
476.9229,689.7394
477.405,663.2655
477.8871,637.9227
478.3693,613.7838
478.8514,591.502
479.3335,572.0354
479.8156,554.394
480.2977,537.4691
480.7798,520.8793
481.262,505.7714
481.7441,493.7754
482.2262,483.4964
482.7083,472.8795
483.1904,460.2396
483.6725,448.0614
484.1547,437.3688
484.6368,428.1596
485.1189,419.4627
485.601,411.2067
486.0831,403.3723
486.5652,396.0229
487.0474,389.2579
487.5295,382.6374
488.0116,376.0721
488.4937,369.793
488.9758,364.0995
489.4579,359.0935
489.9401,354.3381
490.4222,349.7203
490.9043,345.2591
491.3864,340.7459
491.8685,336.103
492.3506,331.8386
492.8328,328.4317
493.3149,325.7393
493.797,323.0079
494.2791,320.1438
494.7612,317.4045
495.2433,315.1913
495.7255,313.313
496.2076,311.2437
496.6897,308.6048
497.1718,305.8811
497.6539,303.4905
498.136,301.4302
498.6182,299.6366
499.1003,298.4054
499.5824,297.219
500.0645,295.6344
500.5466,293.4
501.0287,291.5818
501.5109,290.824
501.993,290.4722
502.4751,289.8839
502.9572,289.1588
503.4393,287.9496
503.9214,285.7477
504.4036,283.0162
504.8857,281.426
505.3678,281.7458
505.8499,281.8382
506.332,280.6002
506.8141,277.873
507.2963,276.3111
507.7784,276.1402
508.2605,276.4972
508.7426,276.5716
509.2247,276.3763
509.7068,276.0965
510.189,275.7485
510.6711,275.3635
511.1532,275.0597
511.6353,274.7919
512.1174,274.3611
512.5995,273.0576
513.0817,271.8519
513.5638,272.4435
514.0459,274.7447
514.528,276.3676
515.0101,274.7816
515.4922,272.3323
515.9744,271.3348
516.4565,273.096
516.9386,274.6927
517.4207,275.3194
517.9028,275.1533
518.3849,274.4823
518.8671,272.0091
519.3492,270.4994
519.8313,270.9221
520.3134,273.1109
520.7955,274.6618
521.2776,275.3984
521.7598,275.7529
522.2419,275.8673
522.724,275.645
523.2061,275.7387
523.6882,276.2621
524.1703,276.879
524.6525,277.0576
525.1346,276.8375
525.6167,276.8344
526.0988,277.2491
526.5809,277.939
527.063,278.9417
527.5452,280.1204
528.0273,280.7168
528.5094,279.4034
528.9915,277.7332
529.4736,277.6332
529.9557,279.2884
530.4379,281.1531
530.92,282.7143
531.4021,283.8408
531.8842,284.3582
532.3663,283.4391
532.8484,283.0304
533.3306,283.993
533.8127,285.7647
534.2948,287.1391
534.7769,287.7724
535.259,288.3008
535.7411,288.8222
536.2233,289.339
536.7054,289.954
537.1875,290.6394
537.6696,291.4779
538.1517,292.6418
538.6339,294.1735
539.116,295.3178
539.5981,295.9474
540.0802,296.4239
540.5623,297.1924
541.0444,298.2348
541.5266,299.4872
542.0087,301.0544
542.4908,302.671
542.9729,303.7852
543.455,304.5377
543.9371,305.5301
544.4193,307.4088
544.9014,309.4753
545.3835,311.2419
545.8656,312.6703
546.3477,313.6614
546.8298,313.5454
547.312,313.3384
547.7941,313.8822
548.2762,315.9398
548.7583,317.889
549.2404,319.4873
549.7225,320.9397
550.2047,322.6133
550.6868,324.6562
551.1689,326.6343
551.651,328.3852
552.1331,329.9664
552.6152,331.8044
553.0974,334.0088
553.5795,335.9482
554.0616,336.9047
554.5437,337.1321
555.0258,338.1071
555.5079,339.9554
555.9901,342.2847
556.4722,345.0548
556.9543,347.9896
557.4364,350.4403
557.9185,351.8697
558.4006,353.3355
558.8828,355.8518
559.3649,359.0504
559.847,362.1388
560.3291,364.8783
560.8112,367.3431
561.2933,369.4026
561.7755,371.0477
562.2576,373.0807
562.7397,376.1344
563.2218,379.1393
563.7039,381.5168
564.186,382.8073
564.6682,384.7269
565.1503,387.5282
565.6324,390.6784
566.1145,393.3799
566.5966,395.5799
567.0787,398.1449
567.5609,401.3481
568.043,404.9307
568.5251,408.2856
569.0072,411.4615
569.4893,414.5677
569.9714,417.7794
570.4536,420.9453
570.9357,423.6772
571.4178,426.007
571.8999,428.6962
572.382,432.2152
572.8641,436.2972
573.3463,440.7823
573.8284,445.9995
574.3105,450.7464
574.7926,454.0753
575.2747,456.9464
575.7568,460.5585
576.239,465.5793
576.7211,470.649
577.2032,475.6884
577.6853,480.6815
578.1674,485.2907
578.6495,489.2357
579.1317,493.6372
579.6138,499.1347
580.0959,505.5717
580.578,511.4356
581.0601,516.6954
581.5422,522.3114
582.0244,529.7274
582.5065,538.1213
582.9886,545.1363
583.4707,550.389
583.9528,555.2675
584.4349,560.7021
584.9171,566.6678
585.3992,573.1262
585.8813,580.0109
586.3634,587.4693
586.8455,595.767
587.3276,604.6957
587.8098,613.3842
588.2919,620.691
588.774,628.7623
589.2561,638.8199
589.7382,650.9291
590.2203,660.6752
590.7025,666.8653
591.1846,672.6487
591.6667,680.1874
592.1488,689.6738
592.6309,698.4562
593.113,706.3094
593.5952,714.1535
594.0773,723.081
594.5594,732.9962
595.0415,743.4296
595.5236,754.7358
596.0057,765.8251
596.4879,774.9131
596.97,782.7521
597.4521,791.0093
597.9342,800.8528
598.4163,811.011
598.8984,821.1322
599.3806,831.1373
599.8627,840.1564
600.3448,847.0234
600.8269,853.6634
601.309,861.1662
601.7911,869.9791
602.2733,878.0314
602.7554,885.3684
603.2375,891.8685
603.7196,897.1667
604.2017,901.2126
604.6838,905.0137
605.166,908.6962
605.6481,912.2504
606.1302,915.6534
606.6123,918.8914
607.0944,921.932
607.5765,925.3259
608.0587,927.9777
608.5408,928.3495
609.0229,926.8366
609.505,924.8778
609.9871,922.873
610.4692,920.9244
610.9514,919.3646
611.4335,918.2518
611.9156,916.1835
612.3977,912.2416
612.8798,907.7159
613.3619,903.3287
613.8441,898.7019
614.3262,895.1245
614.8083,893.0276
615.2904,891.3769
615.7725,888.8984
616.2546,885.5566
616.7368,882.0844
617.2189,878.4566
617.701,874.9924
618.1831,872.2829
618.6652,870.2587
619.1473,868.64
619.6295,867.5916
620.1116,866.7034
620.5937,865.7181
621.0758,864.5831
621.5579,863.0051
622.04,859.9783
622.5222,857.1787
623.0043,855.8112
623.4864,856.3318
623.9685,856.2493
624.4506,855.2258
624.9327,853.6008
625.4149,851.5751
625.897,849.2031
626.3791,846.2366
626.8612,842.4489
627.3433,838.4339
627.8254,835.413
628.3076,833.2885
628.7897,829.8677
629.2718,824.3251
629.7539,817.6624
630.236,811.6683
630.7181,805.9832
631.2003,799.5328
631.6824,791.8635
632.1645,783.1216
632.6466,773.0291
633.1287,761.7545
633.6108,750.9086
634.093,741.8284
634.5751,732.5053
635.0572,721.7485
635.5393,708.9596
636.0214,697.4247
636.5035,688.2897
636.9857,678.9553
637.4678,667.2285
637.9499,652.7188
638.432,638.8924
638.9141,626.0743
639.3962,614.0247
639.8784,602.6252
640.3605,591.877
640.8426,581.3528
641.3247,571.1918
641.8068,560.9648
642.2889,549.6872
642.7711,537.9597
643.2532,526.8453
643.7353,517.806
644.2174,508.7223
644.6995,497.8584
645.1816,485.7192
645.6638,475.4975
646.1459,469.7672
646.628,463.9068
647.1101,456.1174
647.5922,446.309
648.0743,437.231
648.5565,428.9673
649.0386,421.3678
649.5207,414.6717
650.0028,408.7839
650.4849,402.9024
650.967,397.0215
651.4492,391.1403
651.9313,385.2946
652.4134,379.493
652.8955,373.8886
653.3776,368.5125
653.8597,363.119
654.3419,357.2572
654.824,351.3249
655.3061,346.0286
655.7882,342.1146
656.2703,338.2249
656.7524,333.9061
657.2346,329.3965
657.7167,325.4485
658.1988,322.3135
658.6809,319.1605
659.163,315.5919
659.6451,311.7602
660.1273,308.7439
660.6094,306.5495
661.0915,304.2607
661.5736,301.0017
662.0557,297.2499
662.5378,293.9039
663.02,291.0081
663.5021,288.4084
663.9842,286.234
664.4663,284.1592
664.9484,281.8643
665.4305,279.1382
665.9127,276.6102
666.3948,274.2794
666.8769,272.3181
667.359,270.9457
667.8411,270.8199
668.3232,269.8744
668.8054,267.6664
669.2875,264.9135
669.7696,262.8569
670.2517,261.505
670.7338,260.4293
671.2159,259.6958
671.6981,258.9329
672.1802,257.3752
672.6623,255.2067
673.1444,253.0311
673.6265,250.9358
674.1086,249.1665
674.5908,248.3068
675.0729,248.1406
675.555,247.2258
676.0371,244.0098
676.5192,240.957
677.0013,239.2251
677.4835,238.9456
677.9656,238.5125
678.4477,237.8135
678.9298,237.1574
679.4119,236.8701
679.894,236.9513
680.3762,236.5549
680.8583,235.5835
681.3404,234.5364
681.8225,234.0379
682.3046,233.8201
682.7867,233.2785
683.2689,232.2187
683.751,231.0766
684.2331,230.1237
684.7152,229.3084
685.1973,228.5881
685.6794,227.9097
686.1616,227.3676
686.6437,227.104
687.1258,226.9552
687.6079,226.7207
688.09,226.666
688.5721,225.7395
689.0543,223.2541
689.5364,220.0261
690.0185,218.5975
690.5006,218.9245
690.9827,219.4898
691.4648,219.9049
691.947,219.8916
692.4291,218.5948
692.9112,216.2891
693.3933,214.5051
693.8754,214.5779
694.3575,215.0519
694.8397,214.8085
695.3218,213.661
695.8039,213.2982
696.286,214.8742
696.7681,216.4022
697.2502,216.9207
697.7324,216.308
698.2145,215.0805
698.6966,212.9518
699.1787,211.019
699.6608,210.6531
700.1429,211.5124
700.6251,211.827
701.1072,211.2916
701.5893,210.6175
702.0714,210.4632
702.5535,210.6357
703.0356,210.8616
703.5178,211.0835
703.9999,211.3037
704.482,211.7721
704.9641,212.1656
705.4462,211.9429
705.9283,210.4228
706.4105,209.3618
706.8926,209.0881
707.3747,209.336
707.8568,209.5385
708.3389,209.707
708.821,209.6883
709.3032,209.3322
709.7853,208.8525
710.2674,208.8148
710.7495,209.0857
711.2316,209.1046
711.7137,207.501
712.1959,206.4041
712.678,208.3791
713.1601,212.8392
713.6422,215.318
714.1243,212.7258
714.6064,209.6712
715.0886,207.9585
715.5707,207.6096
716.0528,207.596
716.5349,208.1374
717.017,208.4562
717.4991,207.8281
717.9813,206.4272
718.4634,205.5585
718.9455,205.258
719.4276,205.4277
719.9097,206.4964
720.3918,207.7636
720.874,208.1474
721.3561,207.3475
721.8382,206.5968
722.3203,206.4077
722.8024,206.5636
723.2845,206.8945
723.7667,207.7214
724.2488,208.0884
724.7309,207.7755
725.213,207.2369
725.6951,207.0601
726.1772,207.2863
726.6594,207.2086
727.1415,206.6422
727.6236,205.9743
728.1057,205.7657
728.5878,205.8827
729.0699,205.9718
729.5521,205.8881
730.0342,205.7923
730.5163,205.7552
730.9984,205.7891
731.4805,205.9147
731.9626,206.244
732.4448,206.541
732.9269,206.7693
733.409,206.938
733.8911,207.0678
734.3732,207.1622
734.8553,207.1807
735.3375,207.0262
735.8196,206.8545
736.3017,207.2283
736.7838,208.0385
737.2659,208.6212
737.748,208.4876
738.2302,208.0528
738.7123,207.5738
739.1944,207.0986
739.6765,206.823
740.1586,207.2007
740.6407,207.4297
741.1229,206.9947
741.605,205.9385
742.0871,205.3559
742.5692,205.3926
743.0513,205.5483
743.5334,205.4486
744.0156,205.1874
744.4977,205.7324
744.9798,207.0848
745.4619,208.3174
745.944,208.6498
746.4261,208.4678
746.9083,208.1845
747.3904,207.8352
747.8725,207.5195
748.3546,207.0286
748.8367,206.7744
749.3188,207.1488
749.801,208.4444
750.2831,209.3434
750.7652,209.8977
751.2473,209.9676
751.7294,209.1381
752.2115,207.4375
752.6937,206.6975
753.1758,207.1173
753.6579,207.8738
754.14,208.1524
754.6221,208.1874
755.1042,208.4757
755.5864,209.2817
756.0685,209.6394
756.5506,208.5576
757.0327,207.0107
757.5148,206.0011
757.9969,205.9076
758.4791,205.9603
758.9612,206.2027
759.4433,206.5408
759.9254,206.9269
760.4075,207.3762
760.8896,207.5208
761.3718,207.2741
761.8539,206.7988
762.336,206.1311
762.8181,205.4175
763.3002,204.9739
763.7823,204.9456
764.2645,205.1052
764.7466,205.4803
765.2287,205.918
765.7108,206.1935
766.1929,206.0048
766.675,206.0575
767.1572,206.6
767.6393,207.2735
768.1214,207.3385
768.6035,206.7476
769.0856,206.221
769.5677,205.9518
770.0499,205.8024
770.532,205.5718
771.0141,205.2872
771.4962,205.0211
771.9783,204.8244
772.4604,204.6291
772.9426,204.6142
773.4247,204.5637
773.9068,203.9304
774.3889,201.5877
774.871,200.2368
775.3531,200.6891
775.8353,202.2734
776.3174,203.1285
776.7995,203.2333
777.2816,202.9359
777.7637,202.1671
778.2458,201.2876
778.728,200.9377
779.2101,201.0001
779.6922,201.1012
780.1743,200.8865
780.6564,200.8337
781.1385,201.5499
781.6207,202.729
782.1028,202.9477
782.5849,201.2712
783.067,200.0268
783.5491,199.952
784.0313,200.7331
784.5134,201.1622
784.9955,201.2374
785.4776,201.1622
785.9597,201.0633
786.4418,200.8471
786.924,200.1858
787.4061,199.235
787.8882,198.5779
788.3703,199.1429
788.8524,199.4792
789.3345,198.3771
789.8167,196.1479
790.2988,195.4259
790.7809,197.1866
791.263,198.7026
791.7451,198.8951
792.2272,198.1469
792.7094,198.3322
793.1915,199.4055
793.6736,200.227
794.1557,199.8792
794.6378,199.0733
795.1199,198.6592
795.6021,198.5915
796.0842,198.6032
796.5663,198.7838
797.0484,198.8242
797.5305,198.528
798.0126,197.9349
798.4948,197.3203
798.9769,196.578
799.459,196.1057
799.9411,196.2176
800.4232,196.6983
800.9053,196.5744
801.3875,195.9201
801.8696,195.4645
802.3517,195.8022
802.8338,196.4375
803.3159,197.0257
803.798,197.5156
804.2802,197.6916
804.7623,196.8513
805.2444,196.3568
805.7265,196.8703
806.2086,198.236
806.6907,199.1123
807.1729,199.4613
807.655,199.4611
808.1371,199.0872
808.6192,198.4717
809.1013,197.8877
809.5834,197.3586
810.0656,197.0138
810.5477,197.0374
811.0298,197.1845
811.5119,197.3057
811.994,197.4022
812.4761,197.5137
812.9583,197.363
813.4404,197.6395
813.9225,198.9007
814.4046,200.8052
814.8867,201.0491
815.3688,199.5407
815.851,198.1996
816.3331,198.2572
816.8152,198.9576
817.2973,199.0347
817.7794,198.6246
818.2615,198.2724
818.7437,198.3891
819.2258,198.4893
819.7079,198.275
820.19,197.8001
820.6721,197.5172
821.1542,197.4371
821.6364,197.5696
822.1185,198.1953
822.6006,198.8968
823.0827,197.7498
823.5648,195.0646
824.0469,193.2856
824.5291,194.5725
825.0112,196.6664
825.4933,197.512
825.9754,197.3755
826.4575,197.1293
826.9396,197.3893
827.4218,197.1462
827.9039,195.7441
828.386,193.7099
828.8681,192.8887
829.3502,193.4088
829.8323,194.4446
830.3145,196.0733
830.7966,197.6235
831.2787,197.4856
831.7608,196.1318
832.2429,195.033
832.725,195.1335
833.2072,195.3931
833.6893,195.1257
834.1714,194.5989
834.6535,194.5705
835.1356,195.5044
835.6177,196.1868
836.0999,196.4828
836.582,196.3469
837.0641,195.4176
837.5462,193.7932
838.0283,192.599
838.5104,192.2431
838.9926,192.3738
839.4747,192.9473
839.9568,193.6582
840.4389,193.9798
840.921,193.3159
841.4031,192.7403
841.8853,192.481
842.3674,192.4397
842.8495,192.5139
843.3316,192.7218
843.8137,192.9952
844.2958,193.4027
844.778,193.6642
845.2601,193.2719
845.7422,192.4165
846.2243,191.5127
846.7064,190.5829
847.1885,189.8531
847.6707,189.5493
848.1528,189.4746
848.6349,189.4077
849.117,189.3953
849.5991,189.2052
850.0812,188.6003
850.5634,188.1959
851.0455,189.1791
851.5276,191.2314
852.0097,191.4626
852.4918,189.2194
852.9739,187.2235
853.4561,188.9335
853.9382,191.7703
854.4203,192.6239
854.9024,190.138
855.3845,188.4077
855.8666,188.8183
856.3488,189.6889
856.8309,189.9795
857.313,189.6412
857.7951,189.0422
858.2772,188.1444
858.7593,187.271
859.2415,186.454
859.7236,185.9515
860.2057,186.4744
860.6878,188.0656
861.1699,189.2617
861.652,189.1579
862.1342,188.6101
862.6163,188.1265
863.0984,187.7458
863.5805,187.0082
864.0626,185.6713
864.5447,184.7264
865.0269,185.1251
865.509,186.3143
865.9911,186.0716
866.4732,184.6244
866.9553,183.5276
867.4374,184.0604
867.9196,185.0174
868.4017,185.7054
868.8838,186.0927
869.3659,186.1938
869.848,185.9972
870.3301,185.5108
870.8123,184.4459
871.2944,183.2181
871.7765,183.6671
872.2586,185.5895
872.7407,186.8128
873.2228,185.7881
873.705,184.2886
874.1871,184.3139
874.6692,185.2477
875.1513,185.7487
875.6334,185.1169
876.1155,184.3351
876.5977,183.4209
877.0798,182.5744
877.5619,182.1737
878.044,182.2379
878.5261,182.5962
879.0082,183.3952
879.4904,183.969
879.9725,183.0276
880.4546,181.3631
880.9367,180.4074
881.4188,180.8645
881.9009,181.3731
882.3831,181.4711
882.8652,181.3847
883.3473,181.2894
883.8294,181.0635
884.3115,181.4343
884.7936,182.619
885.2758,183.6905
885.7579,183.5464
886.24,182.6035
886.7221,181.7024
887.2042,180.9375
887.6863,180.4519
888.1685,180.2696
888.6506,180.4325
889.1327,181.2116
889.6148,182.8006
890.0969,183.2814
890.579,182.2557
891.0612,181.145
891.5433,180.8351
892.0254,181.1153
892.5075,181.3215
892.9896,181.4355
893.4717,181.329
893.9539,180.605
894.436,179.9157
894.9181,179.962
895.4002,180.5518
895.8823,180.3093
896.3644,178.4687
896.8466,177.1712
897.3287,177.175
897.8108,177.9365
898.2929,177.953
898.775,177.3463
899.2571,176.8865
899.7393,176.9083
900.2214,177.1275
900.7035,177.5464
901.1856,177.9411
901.6677,177.9272
902.1498,176.8635
902.632,176.1673
903.1141,176.0478
903.5962,176.1677
904.0783,175.9778
904.5604,175.5279
905.0425,175.5839
905.5247,176.3109
906.0068,177.2074
906.4889,178.2616
906.971,178.9749
907.4531,178.576
907.9352,176.4527
908.4174,175.1306
908.8995,175.2712
909.3816,175.9227
909.8637,176.6895
910.3458,177.5801
910.8279,177.671
911.3101,176.9419
911.7922,176.4162
912.2743,177.4026
912.7564,178.6015
913.2385,178.2419
913.7206,176.539
914.2028,175.4912
914.6849,176.2087
915.167,177.1038
915.6491,177.7723
916.1312,178.2467
916.6133,178.6269
917.0955,178.9147
917.5776,179.1806
918.0597,179.4346
918.5418,179.7124
919.0239,180.0311
919.506,180.4121
919.9882,180.8892
920.4703,181.7011
920.9524,182.3087
921.4345,182.5329
921.9166,182.5852
922.3987,182.7233
922.8809,182.9548
923.363,183.0513
923.8451,182.9375
924.3272,182.9722
924.8093,183.7051
925.2914,184.7399
925.7736,185.5014
926.2557,185.8452
926.7378,186.3402
927.2199,187.5077
927.702,188.5103
928.1841,188.7395
928.6663,188.1992
929.1484,188.7242
929.6305,190.3658
930.1126,192.0462
930.5947,193.2782
931.0768,194.0478
931.559,194.033
932.0411,193.4595
932.5232,193.2397
933.0053,193.9351
933.4874,194.7122
933.9695,195.2715
934.4517,195.8026
934.9338,196.959
935.4159,198.7537
935.898,200.0373
936.3801,200.314
936.8622,200.3975
937.3444,200.9988
937.8265,202.1149
938.3086,203.8572
938.7907,207.0235
939.2728,209.2368
939.7549,209.7465
940.2371,209.5422
940.7192,209.1192
941.2013,208.4414
941.6834,209.1232
942.1655,211.2659
942.6476,213.6562
943.1298,215.3685
943.6119,216.7016
944.094,217.8489
944.5761,218.8616
945.0582,220.197
945.5403,222.2233
946.0225,224.2816
946.5046,226.1692
946.9867,227.9251
947.4688,229.6275
947.9509,231.2893
948.433,233.4334
948.9152,236.5512
949.3973,239.8676
949.8794,242.5952
950.3615,244.9987
950.8436,247.5587
951.3257,250.1572
951.8079,253.2453
952.29,256.9077
952.7721,260.9737
953.2542,265.4377
953.7363,270.2017
954.2184,274.3069
954.7006,277.5807
955.1827,281.2332
955.6648,286.8082
956.1469,292.8849
956.629,297.9257
957.1111,301.5862
957.5933,306.3775
958.0754,312.2396
958.5575,319.5558
959.0396,328.8799
959.5217,339.5776
960.0038,349.131
960.486,357.9774
960.9681,368.43
961.4502,382.9387
961.9323,398.0669
962.4144,410.3359
962.8965,421.9803
963.3787,437.6987
963.8608,458.9457
964.3429,480.8756
964.825,502.7749
965.3071,525.9453
965.7892,551.335
966.2714,579.1766
966.7535,610.5353
967.2356,645.3202
967.7177,683.6066
968.1998,722.9443
968.6819,767.4764
969.1641,817.4308
969.6462,872.2987
970.1283,943.6279
970.6104,1030.534
971.0925,1143.13
971.5746,1287.088
972.0568,1462.266
972.5389,1676.086
973.021,1923.373
973.5031,2180.802
973.9852,2453.434
974.4673,2717.201
974.9495,2963.047
975.4316,3198.155
975.9137,3423.489
976.3958,3636.118
976.8779,3873.726
977.36,4140.7
977.8422,4441.118
978.3243,4742.397
978.8064,5102.698
979.2885,5590.567
979.7706,6221.951
980.2527,6965.159
980.7349,7816.223
981.217,8771.17
981.6991,9810.818
982.1812,10940.98
982.6633,12207.53
983.1454,13600.07
983.6276,15002.0
984.1097,16700.41
984.5918,18057.48
985.0739,18716.58
985.556,18643.0
986.0381,17641.32
986.5203,15321.68
987.0024,12972.92
987.4845,10673.33
987.9666,8562.318
988.4487,6833.466
988.9308,5466.63
989.413,4379.072
989.8951,3571.038
990.3772,2935.785
990.8593,2468.711
991.3414,2107.703
991.8235,1818.247
992.3057,1595.333
992.7878,1412.593
993.2699,1270.939
993.752,1151.905
994.2341,1048.612
994.7162,959.0889
995.1984,883.3723
995.6805,819.2504
996.1626,762.8853
996.6447,713.4991
997.1268,670.3652
997.6089,633.9075
998.0911,601.9498
998.5732,571.9734
999.0553,543.8607
999.5374,519.2961
1000.02,499.1239
1000.502,480.4832
1000.984,460.7718
1001.466,441.7394
1001.948,425.1298
1002.43,411.4034
1002.912,399.2087
1003.394,388.866
1003.876,379.2037
1004.359,369.895
1004.841,360.8092
1005.323,351.5145
1005.805,342.2088
1006.287,334.0752
1006.769,328.18
1007.251,322.6871
1007.733,316.7749
1008.216,310.6859
1008.698,304.8232
1009.18,299.0359
1009.662,294.0114
1010.144,289.9471
1010.626,285.8808
1011.108,280.5497
1011.59,274.8726
1012.072,270.1577
1012.555,266.4675
1013.037,263.6613
1013.519,263.0381
1014.001,261.6768
1014.483,258.2442
1014.965,253.5182
1015.447,250.0313
1015.929,247.7281
1016.411,246.3652
1016.894,246.327
1017.376,246.1105
1017.858,244.1448
1018.34,241.3485
1018.822,238.8556
1019.304,236.7707
1019.786,235.1756
1020.268,234.3125
1020.751,233.3032
1021.233,231.0888
1021.715,228.2894
1022.197,226.6857
1022.679,226.1441
1023.161,225.7257
1023.643,225.0479
1024.125,224.3134
1024.607,223.8189
1025.09,223.2414
1025.572,221.5043
1026.054,218.4254
1026.536,217.0738
1027.018,218.3532
1027.5,219.839
1027.982,218.7197
1028.464,216.4753
1028.947,214.7272
1029.429,213.7587
1029.911,213.3295
1030.393,213.6301
1030.875,214.0003
1031.357,214.1319
1031.839,214.074
1032.321,213.8476
1032.803,213.5429
1033.286,213.5276
1033.768,214.3125
1034.25,215.053
1034.732,215.5009
1035.214,215.6143
1035.696,215.1805
1036.178,213.9059
1036.66,213.9462
1037.143,215.6694
1037.625,217.2218
1038.107,216.4387
1038.589,214.7814
1039.071,214.1317
1039.553,214.5545
1040.035,214.7368
1040.517,213.6373
1041.0,213.5278
1041.482,215.447
1041.964,218.3324
1042.446,219.4922
1042.928,219.301
1043.41,219.253
1043.892,219.8706
1044.374,220.4598
1044.856,220.1499
1045.339,219.949
1045.821,220.9832
1046.303,223.5905
1046.785,224.6199
1047.267,223.8693
1047.749,223.3139
1048.231,224.5965
1048.713,226.5825
1049.195,227.7887
1049.677,228.4797
1050.16,229.4152
1050.642,231.0916
1051.124,232.6111
1051.606,233.7561
1052.088,234.8908
1052.57,236.7637
1053.052,239.0677
1053.534,240.18
1054.017,239.8596
1054.499,240.1542
1054.981,242.8013
1055.463,246.0681
1055.945,249.1641
1056.427,251.9746
1056.909,253.6374
1057.391,254.0538
1057.874,254.4125
1058.356,254.9043
1058.838,255.9803
1059.32,258.3732
1059.802,261.6286
1060.284,265.1849
1060.766,269.0148
1061.248,273.0044
1061.73,277.3358
1062.213,281.4504
1062.695,284.7358
1063.177,287.4973
1063.659,291.0563
1064.141,295.2226
1064.623,299.0279
1065.105,301.2761
1065.587,303.8722
1066.07,307.7667
1066.552,312.3922
1067.034,316.8365
1067.516,321.0496
1067.998,326.248
1068.48,332.6469
1068.962,338.7944
1069.444,343.0516
1069.927,346.6576
1070.409,350.6414
1070.891,355.0696
1071.373,360.2358
1071.855,366.4246
1072.337,372.5829
1072.819,378.4413
1073.301,384.1078
1073.783,389.862
1074.266,395.6678
1074.748,401.6329
1075.23,408.2589
1075.712,413.6474
1076.194,416.158
1076.676,418.6207
1077.158,422.7937
1077.64,428.5181
1078.122,434.7826
1078.604,441.413
1079.087,446.9362
1079.569,449.5276
1080.051,451.8107
1080.533,455.4544
1081.015,459.7291
1081.497,463.4195
1081.979,466.4886
1082.461,468.7771
1082.944,470.1946
1083.426,471.3149
1083.908,472.8661
1084.39,474.2912
1084.872,474.913
1085.354,474.7222
1085.836,474.1142
1086.318,472.963
1086.801,471.8122
1087.283,470.8454
1087.765,469.8592
1088.247,468.9998
1088.729,467.7529
1089.211,464.4308
1089.693,458.1605
1090.175,452.5027
1090.657,449.4577
1091.14,447.0137
1091.622,444.2995
1092.104,441.252
1092.586,437.1915
1093.068,432.1745
1093.55,427.0967
1094.032,421.9929
1094.514,417.4315
1094.997,414.5127
1095.479,412.0663
1095.961,408.3608
1096.443,402.7793
1096.925,397.8568
1097.407,393.592
1097.889,389.9043
1098.371,387.3704
1098.854,384.9865
1099.336,381.1714
1099.818,376.3162
1100.3,372.1372
1100.782,369.8811
1101.264,366.6766
1101.746,361.7519
1102.228,356.6893
1102.71,353.6978
1103.193,352.2472
1103.675,351.1172
1104.157,350.1703
1104.639,349.141
1105.121,348.4318
1105.603,346.9025
1106.085,343.5728
1106.567,339.4195
1107.049,337.9217
1107.531,338.679
1108.014,338.4842
1108.496,335.9726
1108.978,334.0516
1109.46,335.3241
1109.942,337.6928
1110.424,339.4311
1110.906,340.4982
1111.388,340.8948
1111.871,340.5458
1112.353,340.61
1112.835,341.8608
1113.317,343.5622
1113.799,345.0674
1114.281,346.4045
1114.763,347.5951
1115.245,347.9693
1115.728,349.7103
1116.21,353.0881
1116.692,356.9345
1117.174,360.049
1117.656,363.0519
1118.138,367.4941
1118.62,372.9485
1119.102,377.5715
1119.584,379.3138
1120.067,382.2018
1120.549,387.1591
1121.031,392.963
1121.513,397.6934
1121.995,401.9123
1122.477,407.5396
1122.959,414.8052
1123.441,422.4977
1123.924,431.0074
1124.406,438.5649
1124.888,443.6762
1125.37,447.7391
1125.852,454.9254
1126.334,465.0098
1126.816,474.9599
1127.298,483.9859
1127.781,493.0795
1128.263,502.5975
1128.745,512.7699
1129.227,523.9706
1129.709,536.1656
1130.191,548.2574
1130.673,560.3054
1131.155,572.7602
1131.637,585.6198
1132.12,599.5126
1132.602,615.4427
1133.084,632.8
1133.566,650.3362
1134.048,668.016
1134.53,686.152
1135.012,704.8624
1135.494,723.7403
1135.976,742.255
1136.458,761.2598
1136.941,782.5591
1137.423,805.2455
1137.905,827.025
1138.387,846.5145
1138.869,866.4724
1139.351,886.8726
1139.833,907.7198
1140.315,929.3858
1140.798,951.1213
1141.28,971.0702
1141.762,989.4084
1142.244,1006.677
1142.726,1023.55
1143.208,1038.921
1143.69,1052.725
1144.172,1065.026
1144.655,1076.592
1145.137,1086.882
1145.619,1094.866
1146.101,1100.379
1146.583,1102.165
1147.065,1097.325
1147.547,1090.981
1148.029,1086.353
1148.511,1081.788
1148.994,1072.287
1149.476,1058.145
1149.958,1041.838
1150.44,1023.598
1150.922,1004.221
1151.404,983.3698
1151.886,962.3152
1152.368,942.5176
1152.851,923.6326
1153.333,901.7799
1153.815,876.9337
1154.297,851.6513
1154.779,826.9964
1155.261,801.9988
1155.743,775.4432
1156.225,748.8951
1156.708,724.5651
1157.19,702.7488
1157.672,680.6671
1158.154,658.2385
1158.636,636.2341
1159.118,615.0226
1159.6,594.8838
1160.082,576.6068
1160.564,559.585
1161.047,542.7685
1161.529,525.6395
1162.011,509.6268
1162.493,494.8723
1162.975,480.4293
1163.457,465.0781
1163.939,449.8984
1164.421,436.5146
1164.903,424.6617
1165.385,413.488
1165.868,403.3258
1166.35,392.9324
1166.832,382.133
1167.314,371.5439
1167.796,361.9063
1168.278,353.0478
1168.76,344.7692
1169.242,337.0264
1169.725,329.8834
1170.207,323.8537
1170.689,317.5582
1171.171,310.7457
1171.653,303.7213
1172.135,296.4738
1172.617,289.5226
1173.099,284.0863
1173.582,280.2993
1174.064,276.6202
1174.546,272.4676
1175.028,268.4355
1175.51,264.9195
1175.992,261.3532
1176.474,256.1395
1176.956,250.0204
1177.438,245.4365
1177.921,242.9946
1178.403,240.6687
1178.885,237.6712
1179.367,234.5178
1179.849,231.3985
1180.331,228.2782
1180.813,225.1382
1181.295,221.9786
1181.778,218.7182
1182.26,215.176
1182.742,212.1356
1183.224,210.3054
1183.706,208.7072
1184.188,206.8218
1184.67,204.6912
1185.152,202.661
1185.635,200.702
1186.117,198.5534
1186.599,195.9618
1187.081,193.5014
1187.563,191.3539
1188.045,189.5915
1188.527,188.3399
1189.009,187.5635
1189.491,186.7616
1189.974,185.8999
1190.456,184.7211
1190.938,182.9732
1191.42,181.0537
1191.902,179.3191
1192.384,177.3494
1192.866,174.3001
1193.348,170.1001
1193.83,168.4834
1194.313,169.2709
1194.795,170.2885
1195.277,170.5564
1195.759,170.3454
1196.241,169.8484
1196.723,168.8966
1197.205,166.9753
1197.687,164.027
1198.169,162.7538
1198.652,163.2104
1199.134,163.2672
1199.616,160.8298
1200.098,158.2644
1200.58,157.0209
1201.062,156.5739
1201.544,156.0898
1202.026,155.5728
1202.509,154.8051
1202.991,153.7667
1203.473,152.8309
1203.955,152.47
1204.437,152.0891
1204.919,151.3393
1205.401,150.2533
1205.883,148.7049
1206.365,146.6534
1206.848,145.7431
1207.33,146.2545
1207.812,146.7475
1208.294,146.0489
1208.776,144.9976
1209.258,143.9924
1209.74,143.1345
1210.222,142.7656
1210.705,142.889
1211.187,143.0159
1211.669,143.0774
1212.151,142.9847
1212.633,142.679
1213.115,142.1838
1213.597,141.6239
1214.079,140.8913
1214.562,139.1535
1215.044,136.4565
1215.526,135.032
1216.008,135.5852
1216.49,136.3402
1216.972,135.7599
1217.454,134.9527
1217.936,134.9432
1218.418,135.4742
1218.901,135.0401
1219.383,133.6852
1219.865,132.5193
1220.347,131.8943
1220.829,131.3722
1221.311,130.398
1221.793,129.6209
1222.275,129.6434
1222.757,130.3107
1223.24,130.5211
1223.722,130.2917
1224.204,129.7847
1224.686,128.949
1225.168,128.1671
1225.65,127.9041
1226.132,127.5914
1226.614,126.664
1227.096,125.2556
1227.579,124.6444
1228.061,124.7531
1228.543,124.9184
1229.025,124.927
1229.507,124.8395
1229.989,124.629
1230.471,124.3893
1230.953,124.277
1231.436,124.231
1231.918,123.4326
1232.4,122.0439
1232.882,121.2411
1233.364,121.913
1233.846,122.4876
1234.328,122.0093
1234.81,121.3116
1235.292,120.996
1235.775,121.0132
1236.257,120.9968
1236.739,120.9285
1237.221,120.7021
1237.703,120.1086
1238.185,119.6104
1238.667,119.4823
1239.149,119.4192
1239.632,119.1702
1240.114,118.7968
1240.596,118.8064
1241.078,119.0472
1241.56,118.8677
1242.042,117.3608
1242.524,116.3117
1243.006,116.2741
1243.489,116.6424
1243.971,117.0775
1244.453,117.5266
1244.935,117.7016
1245.417,117.6717
1245.899,117.6883
1246.381,118.6195
1246.863,118.2998
1247.345,115.7617
1247.828,113.3012
1248.31,113.3623
1248.792,114.8804
1249.274,114.969
1249.756,113.9511
1250.238,113.0582
1250.72,112.8947
1251.202,112.6372
1251.684,112.2167
1252.167,111.7069
1252.649,111.068
1253.131,110.4299
1253.613,109.9294
1254.095,109.6427
1254.577,109.8253
1255.059,111.1846
1255.541,111.7641
1256.023,111.3642
1256.506,110.5068
1256.988,109.1789
1257.47,107.9927
1257.952,108.2163
1258.434,109.3121
1258.916,109.5534
1259.398,108.2845
1259.88,107.608
1260.363,107.7185
1260.845,107.9739
1261.327,107.7154
1261.809,107.4266
1262.291,107.9425
1262.773,108.7684
1263.255,108.4489
1263.737,106.4851
1264.219,105.8236
1264.702,106.7542
1265.184,107.5588
1265.666,106.2991
1266.148,104.9831
1266.63,105.5517
1267.112,107.076
1267.594,107.4937
1268.076,106.726
1268.559,106.0506
1269.041,105.556
1269.523,105.4351
1270.005,106.4672
1270.487,107.21
1270.969,106.5029
1271.451,105.1673
1271.933,104.1545
1272.416,103.4782
1272.898,103.3884
1273.38,103.8486
1273.862,104.2563
1274.344,104.2917
1274.826,104.1635
1275.308,103.9081
1275.79,103.5861
1276.272,103.1432
1276.755,102.7007
1277.237,102.9126
1277.719,103.6816
1278.201,104.1044
1278.683,103.4296
1279.165,102.832
1279.647,102.4595
1280.129,102.3549
1280.611,102.743
1281.094,103.3523
1281.576,103.6286
1282.058,103.58
1282.54,103.4002
1283.022,103.4093
1283.504,102.5759
1283.986,100.4701
1284.468,98.64756
1284.95,99.21986
1285.433,100.6151
1285.915,100.6567
1286.397,99.65604
1286.879,99.18793
1287.361,99.57736
1287.843,99.64468
1288.325,99.24407
1288.807,98.88648
1289.29,99.31737
1289.772,99.70121
1290.254,99.01368
1290.736,97.80077
1291.218,97.45584
1291.7,98.07271
1292.182,98.18533
1292.664,97.69834
1293.146,97.39796
1293.629,98.07233
1294.111,98.83085
1294.593,99.14663
1295.075,99.2581
1295.557,99.57629
1296.039,100.0041
1296.521,99.57512
1297.003,98.33853
1297.486,97.17205
1297.968,96.39732
1298.45,96.01342
1298.932,96.00634
1299.414,96.32384
1299.896,97.30209
1300.378,98.46136
1300.86,98.11459
1301.343,96.60307
1301.825,95.65926
