Raman Shift,Intensity 
400,5.977516019
401,5.986192966
402,6.022294293
403,6.100009215
404,6.010539055
405,6.032478567
406,5.98184628
407,6.019510441
408,6.031377488
409,5.965371188
410,5.951105764
411,6.009970065
412,6.02647906
413,5.902882985
414,5.975349263
415,5.95198025
416,5.93443907
417,6.070491829
418,5.979477983
419,5.961316766
420,5.988600923
421,5.960129195
422,5.965037115
423,5.9629311
424,6.058488736
425,6.01027744
426,5.907307643
427,6.023703018
428,5.973505034
429,5.950007453
430,6.012897731
431,6.035415085
432,6.019133596
433,6.041931728
434,5.900111178
435,5.99872224
436,5.938948381
437,5.960782318
438,5.978259219
439,6.084999128
440,5.918329508
441,5.946076515
442,6.028269915
443,5.987514882
444,6.020472274
445,5.97663877
446,6.036525408
447,6.084052043
448,6.050274369
449,6.00975915
450,6.026797074
451,5.949520442
452,5.953787916
453,6.009050368
454,6.033323905
455,5.924435647
456,6.023271754
457,6.003549445
458,6.066470784
459,6.013397232
460,6.093557288
461,6.023220889
462,6.019614673
463,5.987190739
464,6.054584671
465,5.976934717
466,6.10532575
467,6.042804017
468,6.043239466
469,5.979003788
470,6.042137851
471,5.989528096
472,5.936050491
473,6.02513413
474,6.087536414
475,6.052251807
476,6.026960818
477,5.973485422
478,5.987730075
479,6.067024765
480,6.016786664
481,5.974382597
482,6.000519272
483,5.872061531
484,5.971561993
485,6.059990049
486,6.0809257
487,5.896747807
488,5.959935124
489,5.945027353
490,6.068807408
491,6.046161597
492,6.001291294
493,6.06606226
494,5.997978518
495,5.971191683
496,6.005003162
497,6.035327875
498,5.988662979
499,5.986748417
500,6.051500498
501,5.984839928
502,6.012795395
503,5.944133596
504,5.972831866
505,6.075782266
506,6.001834301
507,6.015420581
508,6.013156815
509,6.062608306
510,5.899672063
511,6.076156493
512,5.985162299
513,6.066268475
514,5.905769074
515,6.027169586
516,5.984065126
517,5.980510424
518,5.923729124
519,6.003369864
520,5.940741742
521,5.970925218
522,6.040232058
523,6.049855561
524,5.981585486
525,5.957914048
526,6.079820054
527,6.008233781
528,5.869209812
529,6.031822755
530,6.023905729
531,5.966368628
532,6.01856651
533,6.003058931
534,5.921375205
535,5.988399123
536,5.986581491
537,5.968337273
538,6.03192409
539,6.013910791
540,5.944235299
541,5.995487986
542,5.935059259
543,5.93215402
544,6.051576919
545,6.011316969
546,5.995491048
547,5.936366048
548,6.035631268
549,6.033958779
550,5.897617172
551,5.996331075
552,6.089487467
553,6.016630265
554,6.023412747
555,6.038903143
556,5.937479379
557,6.069042003
558,6.031298138
559,5.96852468
560,5.970952317
561,5.965640587
562,6.04462658
563,6.043253694
564,6.028101751
565,5.966185944
566,5.969741459
567,5.960757529
568,6.02451042
569,5.976236238
570,5.980737264
571,6.100927273
572,6.002143264
573,6.085302428
574,6.028793315
575,6.019887957
576,6.036496712
577,6.025186328
578,6.050125552
579,6.061833901
580,6.035606624
581,5.952648194
582,6.001357088
583,6.019065343
584,6.026892334
585,5.970715142
586,5.968265372
587,6.002922551
588,5.915376067
589,6.029804534
590,6.033259001
591,6.089453087
592,5.940224553
593,5.972246312
594,5.970366006
595,5.991343031
596,5.895140641
597,5.940261161
598,6.033949644
599,6.004887323
600,6.047470935
601,6.019106827
602,6.034089183
603,5.959121958
604,6.038202562
605,6.081258556
606,5.932458122
607,6.005636084
608,6.11664643
609,6.05530912
610,5.904807952
611,6.01533987
612,6.038418204
613,6.012273708
614,6.05495384
615,6.00509587
616,5.99950253
617,6.013359088
618,5.994727902
619,6.054971399
620,6.055347643
621,5.989602677
622,6.008387409
623,6.05894078
624,6.021007978
625,6.003064079
626,5.966893689
627,5.899450314
628,5.982948187
629,6.01734431
630,6.023412909
631,6.031155598
632,5.984245415
633,6.053755483
634,5.91153112
635,6.007599537
636,6.048498677
637,5.888164413
638,5.966922779
639,5.986688258
640,6.024550693
641,5.976108669
642,6.023773853
643,6.016937044
644,6.029369526
645,6.026529965
646,5.985034764
647,6.042545456
648,5.981105904
649,6.012263132
650,5.924853352
651,6.013715509
652,6.029203393
653,6.041184671
654,6.041427888
655,5.979502836
656,6.01772068
657,6.038572563
658,6.067809439
659,6.061412675
660,5.931409954
661,5.966968222
662,5.966262292
663,5.990863897
664,5.968940206
665,6.027530714
666,6.134252432
667,5.990681304
668,5.975138795
669,5.933169759
670,6.054146506
671,6.042520771
672,6.066005553
673,6.060999348
674,6.045536711
675,6.072303995
676,6.022588785
677,5.991957361
678,6.04250826
679,6.043415294
680,6.004733181
681,5.966432859
682,5.985074981
683,6.018570022
684,5.89340693
685,5.983164642
686,5.939020176
687,5.938852545
688,6.028886487
689,5.995634576
690,5.97316983
691,6.069985808
692,6.00309933
693,6.082847796
694,6.115934714
695,5.948204592
696,6.026572008
697,6.041151614
698,5.933693908
699,6.002208666
700,6.043146937
701,5.926056207
702,5.989241032
703,6.027843678
704,6.062443754
705,6.006881351
706,6.093638754
707,6.03295397
708,6.005384473
709,6.135989995
710,5.984166551
711,5.967421535
712,6.020022447
713,6.031292396
714,6.0356531
715,5.97392763
716,6.021014121
717,6.088958179
718,5.963995428
719,5.959627808
720,6.016339213
721,6.000978017
722,5.97261134
723,5.878188645
724,5.982741166
725,5.980688463
726,6.020386958
727,5.998154174
728,5.956086896
729,5.943331465
730,6.02350375
731,6.011511786
732,5.994238366
733,6.092248096
734,5.982935969
735,5.996664443
736,6.004550963
737,6.021083526
738,6.041551618
739,6.005218928
740,6.073128526
741,6.006047839
742,6.029885143
743,6.107505733
744,6.01929434
745,5.960363241
746,5.987580137
747,6.032238585
748,6.025235522
749,5.981664662
750,5.969386339
751,6.073667179
752,6.016759011
753,5.987009426
754,5.860677162
755,5.963220066
756,6.018588072
757,5.998338158
758,5.992697841
759,5.927944643
760,6.025426354
761,5.910654606
762,6.062092746
763,6.015303306
764,5.974489225
765,5.936810553
766,5.937315081
767,5.97624732
768,6.048989885
769,5.967022855
770,5.982584178
771,5.956107652
772,6.027689783
773,6.021559225
774,6.038838711
775,6.009886623
776,5.972300487
777,6.013890377
778,6.111969259
779,6.008895705
780,6.049601242
781,5.945909224
782,5.98488568
783,6.075847391
784,5.93195127
785,6.023266531
786,6.035538217
787,6.039689965
788,5.977327745
789,5.98670248
790,5.98197299
791,5.965464738
792,6.064038885
793,6.072048825
794,6.031510051
795,5.966090844
796,5.984325315
797,5.923453449
798,6.000334353
799,6.023566798
800,6.044244592
801,5.982796628
802,5.982585328
803,5.986663267
804,5.957884435
805,5.973265945
806,5.961308822
807,6.041591625
808,6.039471194
809,6.024491894
810,6.015381525
811,5.92578042
812,6.054210531
813,5.96559808
814,6.064252918
815,6.004534666
816,6.044279471
817,5.935515181
818,6.016320634
819,5.986467827
820,5.903408281
821,5.995564391
822,6.02576163
823,5.998462926
824,5.912607584
825,6.046698842
826,5.952187303
827,5.941441627
828,6.041602818
829,6.037517808
830,5.955649597
831,5.977338897
832,5.904146515
833,5.95622169
834,5.970477443
835,5.973627898
836,5.908747308
837,6.020804792
838,5.973315529
839,6.000579125
840,5.959566417
841,5.943192743
842,5.991336846
843,6.031738174
844,6.00655557
845,5.914105031
846,5.965257273
847,6.055824916
848,5.997397615
849,5.984340679
850,6.109649226
851,6.000673419
852,5.984660089
853,5.986337665
854,5.97600103
855,5.988764134
856,5.972026789
857,6.077376391
858,5.999686473
859,5.946338497
860,6.024244235
861,5.953959548
862,5.901016575
863,6.006411654
864,6.027895175
865,5.926567357
866,5.972434789
867,6.023260936
868,5.807346423
869,5.981199891
870,6.041511548
871,6.002987018
872,6.014448854
873,6.086457703
874,5.954542484
875,6.101858529
876,6.034093143
877,5.860341822
878,6.021930335
879,5.996066151
880,5.965589437
881,5.959287141
882,6.015581004
883,5.974281926
884,6.01353846
885,5.984799697
886,5.986474341
887,5.976811787
888,5.980967683
889,5.949376775
890,6.047071586
891,5.976420917
892,6.04911968
893,6.021905776
894,5.959478468
895,6.128008876
896,5.934259847
897,6.046520951
898,6.002023887
899,6.049848078
900,6.007574892
901,6.016750401
902,6.016092172
903,5.97777459
904,6.013367892
905,6.098868228
906,6.002968822
907,5.984379017
908,6.106645727
909,5.997640191
910,5.934418535
911,5.983467309
912,6.097402836
913,5.983850965
914,6.007473354
915,5.987393543
916,5.999319546
917,5.896399926
918,5.956087975
919,5.971982382
920,6.040597558
921,6.043110713
922,5.980179648
923,6.010463464
924,6.037852938
925,5.959225324
926,5.99920995
927,6.054855258
928,6.101357454
929,6.101857737
930,5.972939563
931,5.951778996
932,5.889351549
933,6.012226548
934,6.052855963
935,6.075100435
936,5.981201531
937,5.982777639
938,5.993281174
939,5.953244265
940,5.953370601
941,5.975243316
942,6.024051378
943,6.030727331
944,5.993800264
945,5.913609126
946,6.073881074
947,5.999190774
948,6.009462886
949,5.937966042
950,6.023076038
951,6.083524684
952,6.000859658
953,5.923442873
954,5.990062165
955,5.968557925
956,6.004212804
957,5.998008822
958,5.984219595
959,5.938997065
960,5.998041268
961,6.006443736
962,6.008301777
963,6.005416325
964,5.981676251
965,5.955449746
966,5.939430628
967,6.002644384
968,5.973612954
969,6.072492586
970,5.996993274
971,5.997269948
972,5.975310559
973,6.038008874
974,5.939370459
975,6.027956
976,6.024598836
977,5.971607047
978,6.03353708
979,6.047965594
980,6.046476171
981,6.107357525
982,6.069554024
983,6.015208591
984,5.991242229
985,5.879956613
986,5.985526525
987,5.88182816
988,5.988712615
989,6.059593662
990,5.891124013
991,6.001500105
992,6.016734418
993,6.004412606
994,6.027269086
995,6.005842777
996,5.963424327
997,6.035656897
998,6.04730778
999,6.04861896
1000,5.999744066
1001,5.969353916
1002,5.967645021
1003,6.105762267
1004,5.996494837
1005,5.88800236
1006,6.02664229
1007,6.063871076
1008,6.010706129
1009,6.019623315
1010,6.005238975
1011,5.992377835
1012,6.0197704
1013,6.124445906
1014,5.994484142
1015,5.954631675
1016,6.076753894
1017,6.002262232
1018,5.957028847
1019,6.037797677
1020,5.972405296
1021,6.000139882
1022,6.039196111
1023,5.967259679
1024,6.034536798
1025,6.035740304
1026,5.944292099
1027,6.019552187
1028,6.037570766
1029,5.999259855
1030,6.00450639
1031,6.022094688
1032,6.022438264
1033,6.047640776
1034,5.982719734
1035,6.042672583
1036,5.966196233
1037,6.02509466
1038,5.9445413
1039,6.002677705
1040,6.055375561
1041,6.053583
1042,5.974517913
1043,5.945005015
1044,6.003198188
1045,6.106403872
1046,5.92822406
1047,6.011525657
1048,5.916590159
1049,6.084025576
1050,5.985763156
1051,5.985320506
1052,5.98745214
1053,5.950578815
1054,6.029153279
1055,6.014106002
1056,5.909193411
1057,5.979682285
1058,5.967194353
1059,5.982491113
1060,6.094794196
1061,6.016398972
1062,5.985664762
1063,6.036432752
1064,6.052854038
1065,5.971517473
1066,5.932451778
1067,5.985379778
1068,5.955662937
1069,6.055477792
1070,5.966827375
1071,6.040343956
1072,6.061990538
1073,5.934384723
1074,6.026576117
1075,5.9966905
1076,5.963673632
1077,5.975528648
1078,5.974546258
1079,5.972883964
1080,6.016769026
1081,5.974510327
1082,5.988269389
1083,5.950254664
1084,5.89506433
1085,6.012968883
1086,6.023148633
1087,6.022906173
1088,5.89857709
1089,5.918708549
1090,5.986060841
1091,6.003917424
1092,5.997518448
1093,6.014545063
1094,5.965355617
1095,6.050369506
1096,5.957043612
1097,6.042745051
1098,6.09363385
1099,5.925135362
1100,6.09518311
1101,6.022849286
1102,5.970425405
1103,6.047533233
1104,6.129602151
1105,5.943233931
1106,6.014897485
1107,5.974105878
1108,5.931230534
1109,5.974310606
1110,6.062516873
1111,6.023638966
1112,6.071008514
1113,5.974288059
1114,6.022926571
1115,5.958527869
1116,5.966356524
1117,6.055429201
1118,6.066677355
1119,6.058206597
1120,6.011915762
1121,5.95784906
1122,5.949666919
1123,6.032745338
1124,5.999118298
1125,5.996627376
1126,5.993820643
1127,5.924085353
1128,6.040294994
1129,5.962609956
1130,5.883447437
1131,5.958938859
1132,6.021631257
1133,5.992268855
1134,6.055340209
1135,5.936964784
1136,6.017733801
1137,5.988367904
1138,5.981601762
1139,6.055052392
1140,6.084199287
1141,5.962814902
1142,5.862380809
1143,5.937917984
1144,5.897199588
1145,5.963112767
1146,5.973904475
1147,5.972033797
1148,6.055910807
1149,6.010735328
1150,5.973712243
1151,6.037483636
1152,6.097472052
1153,6.054218218
1154,6.068148184
1155,6.003699861
1156,6.039920115
1157,5.956094081
1158,5.992814375
1159,6.046762951
1160,5.909639943
1161,5.986849971
1162,5.928415921
1163,5.944250163
1164,6.027490424
1165,5.970675541
1166,6.025325785
1167,5.992829787
1168,5.927118618
1169,5.995681454
1170,5.988402679
1171,5.984688415
1172,5.997041144
1173,5.980319307
1174,6.017991479
1175,6.008110929
1176,6.093738872
1177,6.034498009
1178,5.945753586
1179,5.945049931
1180,5.987995303
1181,6.030564767
1182,6.078046195
1183,5.964325654
1184,6.087201067
1185,5.986415649
1186,5.933800593
1187,5.980003847
1188,6.030335061
1189,6.055982136
1190,6.019415846
1191,5.922739988
1192,5.996554398
1193,5.976654955
1194,6.013205641
1195,6.002357085
1196,5.943289108
1197,6.056886853
1198,6.027605274
1199,5.961009289
1200,5.991055803
1201,5.977199487
1202,5.896474288
1203,6.123108479
1204,5.98625314
1205,6.020231739
1206,5.910478126
1207,5.968033974
1208,5.982749884
1209,6.128550263
1210,6.067998192
1211,5.983327682
1212,6.018393321
1213,5.94977806
1214,5.859882781
1215,5.967277399
1216,6.02018542
1217,5.939349111
1218,5.912233041
1219,5.923720817
1220,5.97257495
1221,6.010666176
1222,5.928703312
1223,5.956218304
1224,5.920617189
1225,6.033172411
1226,6.006024203
1227,5.958065761
1228,6.035494562
1229,6.010402808
1230,6.104359656
1231,6.024394232
1232,6.041731238
1233,5.930188522
1234,5.970308804
1235,5.934673413
1236,6.007291791
1237,5.886147379
1238,5.96787112
1239,5.979095329
1240,5.987028885
1241,5.953183268
1242,5.944560027
1243,6.004609736
1244,5.973898236
1245,6.054512967
1246,6.04059778
1247,6.002050984
1248,6.03014643
1249,5.999141055
1250,6.015199143
1251,5.924146275
1252,5.996657358
1253,6.027866257
1254,6.018959319
1255,5.964587055
1256,5.894103427
1257,5.978942474
1258,5.994955877
1259,6.014059467
1260,6.002001232
1261,5.960572118
1262,5.956512642
1263,5.959199502
1264,6.016095962
1265,6.034619495
1266,6.013300011
1267,6.023894294
1268,5.997354808
1269,6.061728753
1270,6.054450307
1271,6.017365765
1272,5.906553729
1273,6.013304132
1274,5.904794487
1275,5.937928227
1276,6.020308533
1277,5.983204805
1278,5.981475714
1279,5.906204747
1280,6.112665804
1281,6.015023369
1282,5.991900188
1283,6.039095724
1284,6.015208786
1285,6.012463034
1286,5.962388075
1287,6.044868604
1288,6.074375254
1289,5.907513069
1290,5.987999211
1291,5.99606399
1292,5.965592124
1293,5.96917394
1294,5.979963132
1295,5.938401092
1296,5.978096845
1297,6.079687591
1298,6.031950456
1299,6.06581572
1300,5.967953877
1301,6.032879017
1302,5.946589502
1303,6.022609778
1304,5.909569729
1305,6.045733682
1306,6.006273399
1307,5.943661494
1308,5.948139645
1309,6.002119202
1310,5.966610199
1311,6.002053575
1312,6.035971716
1313,5.986914708
1314,6.034044296
1315,6.010969603
1316,6.017189688
1317,5.938697491
1318,6.023418283
1319,6.032052249
1320,5.966765597
1321,6.04802167
1322,5.954078751
1323,5.983053634
1324,5.94292811
1325,6.023661518
1326,5.896866761
1327,5.95245239
1328,6.061676808
1329,5.948565261
1330,5.931078182
1331,6.048119272
1332,6.049331705
1333,5.995423298
1334,6.099388474
1335,5.994263376
1336,6.009961454
1337,6.06136747
1338,5.998394105
1339,6.035971436
1340,5.978148951
1341,6.048456689
1342,5.996358641
1343,6.108566536
1344,6.016516657
1345,6.072585297
1346,6.075681977
1347,5.974807901
1348,6.091717729
1349,5.97222858
1350,6.057727765
1351,6.010971818
1352,6.001773435
1353,5.960414544
1354,5.989594697
1355,5.99789886
1356,5.998466474
1357,5.995211615
1358,6.04025126
1359,6.005968716
1360,6.010007685
1361,6.02671781
1362,6.000554422
1363,6.081256898
1364,5.998016058
1365,6.079876034
1366,6.044496605
1367,5.984941248
1368,6.039989908
1369,5.975004602
1370,6.02552087
1371,5.99923153
1372,5.938116843
1373,5.97107996
1374,6.0251878
1375,5.977505891
1376,6.067275254
1377,5.990964412
1378,5.964546704
1379,6.018133187
1380,5.967280018
1381,5.985889366
1382,5.998436953
1383,5.973201738
1384,6.111549525
1385,6.056588554
1386,6.037848616
1387,5.909837608
1388,5.993357615
1389,6.011824354
1390,6.013292751
1391,5.982273519
1392,6.075549895
1393,5.999454442
1394,6.044676786
1395,5.982140154
1396,5.877996456
1397,6.044339438
1398,6.061951592
1399,6.066560392
1400,6.055546691
1401,5.950207419
1402,5.972961836
1403,5.977467119
1404,5.926071293
1405,6.018925292
1406,5.970114317
1407,6.057926809
1408,5.968413206
1409,5.958633693
1410,6.083190616
1411,5.992435214
1412,5.998018611
1413,5.927577642
1414,5.99923684
1415,6.030650982
1416,6.0118432
1417,6.037588301
1418,5.995909528
1419,6.02214002
1420,5.965833013
1421,6.024381664
1422,6.078962295
1423,5.997526796
1424,6.042908685
1425,6.023279092
1426,6.010098229
1427,6.021513367
1428,6.082364507
1429,6.020508383
1430,5.999712881
1431,6.011692984
1432,5.974338385
1433,5.952202114
1434,5.989732267
1435,6.004140411
1436,5.965920417
1437,6.047552164
1438,6.06064796
1439,5.924441335
1440,6.007728506
1441,5.994279329
1442,6.003990035
1443,6.012212101
1444,5.973938042
1445,6.082819701
1446,6.055615174
1447,6.011739826
1448,5.95678906
1449,5.95020023
1450,5.972185585
1451,5.982116597
1452,6.009490424
1453,5.97936856
1454,6.019015062
1455,5.93385994
1456,5.983977767
1457,6.009637486
1458,5.967978672
1459,6.001810289
1460,5.944771371
1461,6.024110138
1462,5.882210155
1463,5.878475813
1464,6.009633388
1465,6.074034077
1466,5.994937594
1467,5.998357878
1468,6.068300357
1469,6.001674626
1470,6.031781606
1471,6.024111604
1472,6.076178169
1473,5.969138129
1474,5.943728365
1475,6.043747136
1476,5.985101303
1477,6.064272942
1478,5.967779993
1479,5.97838852
1480,5.856056795
1481,6.004013743
1482,5.94995648
1483,6.002231008
1484,5.947278903
1485,5.992671986
1486,6.089904602
1487,5.931265484
1488,6.03177452
1489,6.078449154
1490,5.933795218
1491,5.957688681
1492,6.000968825
1493,6.066010941
1494,6.018216873
1495,6.068567487
1496,6.00777977
1497,5.912002933
1498,6.002580918
1499,5.996191371
1500,5.920915084
1501,5.943561315
1502,6.055485799
1503,5.969148414
1504,6.056531182
1505,5.896599857
1506,6.039725331
1507,6.007373094
1508,6.044023436
1509,5.953784187
1510,6.027181701
1511,5.909783819
1512,6.06987085
1513,6.029686979
1514,5.965820599
1515,5.909941235
1516,6.014705739
1517,5.964527715
1518,6.006465849
1519,5.961045723
1520,6.022068728
1521,6.051186794
1522,6.02864184
1523,6.014132067
1524,5.990312151
1525,5.972474335
1526,5.991215505
1527,6.00424791
1528,6.100402535
1529,6.001866437
1530,6.094555093
1531,6.007230517
1532,6.003234944
1533,6.067830546
1534,6.070148979
1535,5.961867097
1536,6.033652602
1537,6.06271409
1538,5.929872134
1539,5.95507285
1540,5.976481794
1541,6.040824808
1542,6.087085978
1543,6.055477842
1544,6.108079607
1545,6.011904471
1546,6.081825676
1547,6.075457829
1548,5.963170168
1549,6.064078091
1550,5.970247063
1551,6.099841855
1552,5.983158954
1553,5.965757199
1554,5.921623491
1555,5.958601791
1556,6.018292207
1557,6.056835981
1558,6.053001013
1559,6.055062127
1560,5.945499883
1561,5.984271094
1562,5.907369112
1563,6.025924345
1564,6.002342427
1565,6.025915985
1566,5.991918075
1567,5.883438098
1568,6.094736227
1569,6.003794534
1570,6.043138293
1571,6.076248189
1572,5.980966496
1573,6.002333873
1574,6.065787861
1575,6.016083008
1576,5.962381499
1577,5.942292847
1578,6.029977344
1579,6.018706874
1580,6.004760434
1581,5.96943153
1582,6.082450607
1583,6.00418407
1584,6.015956422
1585,6.021996232
1586,5.960794868
1587,5.919551027
1588,5.958751724
1589,5.928092492
1590,6.053605023
1591,6.000135786
1592,6.074653007
1593,6.019445472
1594,5.921024287
1595,6.039887004
1596,5.983856395
1597,5.976141348
1598,6.010775541
1599,6.059648481
1600,5.969988244
1601,5.934672635
1602,5.969986451
1603,6.016450378
1604,5.966679254
1605,5.909017331
1606,6.126258986
1607,6.012049172
1608,5.934910967
1609,5.986968596
1610,6.005605625
1611,6.013003109
1612,5.935421226
1613,5.989757525
1614,5.893038409
1615,5.859632309
1616,6.075169597
1617,5.997179312
1618,6.036123321
1619,5.977057104
1620,5.963738324
1621,5.97659773
1622,6.033190429
1623,5.856233761
1624,6.00585417
1625,5.990672408
1626,5.978560916
1627,6.015769627
1628,6.001103822
1629,6.056663157
1630,6.006888143
1631,6.001175532
1632,6.002569044
1633,6.026156951
1634,6.009504802
1635,5.987568719
1636,5.97202974
1637,5.997641864
1638,6.000320176
1639,6.059743082
1640,5.948811593
1641,5.964011076
1642,6.034740363
1643,5.987346729
1644,5.940290101
1645,6.066146088
1646,5.962990711
1647,6.013878174
1648,5.916841423
1649,6.066130001
1650,6.040323418
1651,5.973245821
1652,6.082684234
1653,6.015153666
1654,6.007564376
1655,6.116077633
1656,5.961929221
1657,6.033923301
1658,5.930825343
1659,6.00617912
1660,6.041102273
1661,5.973006029
1662,6.011469994
1663,6.039925652
1664,5.960051052
1665,5.983196233
1666,5.999156788
1667,5.948266274
1668,5.924726952
1669,5.954959076
1670,5.998617597
1671,5.959504536
1672,5.995234841
1673,6.03332289
1674,5.915925777
1675,6.032353107
1676,6.012823317
1677,6.029460249
1678,5.941388039
1679,5.959252819
1680,5.944296995
1681,5.993081433
1682,6.053287036
1683,6.051073007
1684,6.019536588
1685,6.067803592
1686,6.071570601
1687,6.024490656
1688,6.051390212
1689,6.015974885
1690,5.964698713
1691,5.948091499
1692,6.052573253
1693,6.040981738
1694,5.984636997
1695,6.06465106
1696,5.985951218
1697,6.035698953
1698,6.059778899
1699,5.973989244
1700,6.042533997
1701,6.020908811
1702,6.004158777
1703,6.000795282
1704,5.990948287
1705,5.943407756
1706,6.027110348
1707,6.024748272
1708,5.988550969
1709,5.965528296
1710,6.021758973
1711,5.987332817
1712,5.995766298
1713,6.010415716
1714,6.024595334
1715,5.921635062
1716,6.020201447
1717,5.957632129
1718,5.994124164
1719,6.024352373
1720,5.987682174
1721,6.025251878
1722,5.936660199
1723,6.013340459
1724,5.973974044
1725,6.077197636
1726,6.023400232
1727,5.995498197
1728,6.011476239
1729,6.019722521
1730,6.015483184
1731,5.974150127
1732,5.995847157
1733,5.989600432
1734,6.069351295
1735,6.024306662
1736,5.963371537
1737,6.037654535
1738,6.048996726
1739,5.992279955
1740,5.959759576
1741,5.975956336
1742,6.063666147
1743,5.943892051
1744,6.062230539
1745,6.023634665
1746,6.058589771
1747,5.927853654
1748,5.926975964
1749,6.015287927
1750,5.894433604
1751,6.013213503
1752,6.023027593
1753,6.0363912
1754,5.986745431
1755,5.952988048
1756,5.921717132
1757,5.934997691
1758,6.006250457
1759,5.894528147
1760,6.065204731
1761,6.013442522
1762,5.990741772
1763,5.963750608
1764,5.998707949
1765,6.00072518
1766,5.97452998
1767,6.037537702
1768,6.014770917
1769,6.031323409
1770,5.933536351
1771,6.048126008
1772,5.98429865
1773,5.978964108
1774,5.935847493
1775,6.043429546
1776,5.987956957
1777,6.011692922
1778,5.931889673
1779,5.944710431
1780,6.033691093
1781,6.05965936
1782,6.033204073
1783,5.98291066
1784,5.964115456
1785,5.995511305
1786,5.922657366
1787,6.010014013
1788,6.053325033
1789,6.056545256
1790,5.998215431
1791,5.999263849
1792,6.048785014
1793,5.91656523
1794,5.999511423
1795,6.048231811
1796,5.975367894
1797,6.015467922
1798,6.005516467
1799,5.983698643
1800,5.974079333
1801,5.98653768
1802,6.022294413
1803,5.997147729
1804,6.047639606
1805,6.05727791
1806,6.029043841
1807,6.035217447
1808,6.019021811
1809,6.013977609
1810,5.979921485
1811,5.959601554
1812,5.99112916
1813,6.030491481
1814,5.947540781
1815,5.980201126
1816,5.984202553
1817,5.919980501
1818,5.970114453
1819,6.00457307
1820,6.073071689
1821,5.954048846
1822,6.074625769
1823,6.018333557
1824,5.991523774
1825,5.998593889
1826,6.003110988
1827,6.118307277
1828,6.007479527
1829,6.032300046
1830,6.023512893
1831,5.950278958
1832,6.082537988
1833,6.077470041
1834,6.05618194
1835,5.98256574
1836,5.957513662
1837,5.956602751
1838,6.040798742
1839,5.985593808
1840,6.025118729
1841,5.953485857
1842,5.964210383
1843,6.046285555
1844,6.061522107
1845,6.047126064
1846,5.988368861
1847,5.926651916
1848,6.011694476
1849,6.054704894
1850,6.024806618
1851,6.094806733
1852,6.103237715
1853,6.095127403
1854,6.010089514
1855,6.023207805
1856,6.012397217
1857,5.932592057
1858,6.002402121
1859,5.985023861
1860,5.954808635
1861,6.048127433
1862,6.034576265
1863,6.058405495
1864,5.918875836
1865,6.052301501
1866,6.05947167
1867,5.911403121
1868,6.021946361
1869,6.046471148
1870,5.996733854
1871,6.025443656
1872,6.022005275
1873,5.942997319
1874,5.961008859
1875,6.035473344
1876,6.02976891
1877,5.998357465
1878,6.016915638
1879,6.080631081
1880,6.015818152
1881,6.003988292
1882,6.050287256
1883,6.001126582
1884,6.101428185
1885,6.008145959
1886,6.149743376
1887,5.928316662
1888,5.955325241
1889,5.980691867
1890,6.102111116
1891,6.031162211
1892,6.02760293
1893,6.027009707
1894,5.977908698
1895,5.999093509
1896,5.997469114
1897,6.056470801
1898,5.988816273
1899,6.010903616
1900,6.026349581
1901,5.951033049
1902,6.039603147
1903,5.969050202
1904,5.895229352
1905,6.004440444
1906,6.001699114
1907,6.05520507
1908,5.991263653
1909,5.97876437
1910,5.983232624
1911,5.957574503
1912,5.973613728
1913,6.044775318
1914,6.035922569
1915,6.02093893
1916,6.086962206
1917,5.906249964
1918,5.943091183
1919,6.013059508
1920,5.932347049
1921,6.003032898
1922,6.122170285
1923,5.998800486
1924,6.024749719
1925,6.09527176
1926,5.964990561
1927,6.037119777
1928,6.000132815
1929,5.98145575
1930,6.054058131
1931,6.013953539
1932,5.982491221
1933,5.880417545
1934,6.037421021
1935,6.0567329
1936,5.995746443
1937,6.033033278
1938,6.01495003
1939,5.925872922
1940,5.941643852
1941,6.060045118
1942,6.028219011
1943,6.02100254
1944,6.033690076
1945,5.985786165
1946,5.946149265
1947,6.030772574
1948,5.971493125
1949,5.979560448
1950,5.998273386
1951,5.884950059
1952,5.982536458
1953,6.046192987
1954,5.918755664
1955,5.979417421
1956,6.025813671
1957,5.94903075
1958,6.106584148
1959,6.140368548
1960,6.043761985
1961,5.929851548
1962,6.03218467
1963,6.057906786
1964,5.977717019
1965,5.966802695
1966,5.96533048
1967,5.919199637
1968,6.059731001
1969,6.003910725
1970,6.00477578
1971,5.969478592
1972,5.979596921
1973,5.985314027
1974,5.993578955
1975,6.035776753
1976,5.943450287
1977,5.969359044
1978,6.002388958
1979,6.016170683
1980,6.027039561
1981,5.935443702
1982,5.986015338
1983,5.957940334
1984,5.912283776
1985,6.037116455
1986,5.950128443
1987,5.98432363
1988,6.028917062
1989,6.044939811
1990,6.005074164
1991,6.018993682
1992,6.019759532
1993,5.96362776
1994,5.995025998
1995,6.061791893
1996,5.980733916
1997,6.015911106
1998,5.909472594
1999,6.036063012
2000,5.930629758
2001,5.990677337
2002,5.949078738
2003,6.021124179
2004,6.100829401
2005,6.017724204
2006,5.994992571
2007,6.031108734
2008,6.059720225
2009,6.002885391
2010,5.956327853
2011,6.01716947
2012,6.012014981
2013,5.975853507
2014,6.105524857
2015,5.934552283
2016,5.945105885
2017,5.995136526
2018,6.076515037
2019,5.998616094
2020,5.959860957
2021,5.982698051
2022,5.953508574
2023,6.0780083
2024,5.838377755
2025,6.073961818
2026,6.055381998
2027,5.920739261
2028,6.016319687
2029,6.021437665
2030,6.010195466
2031,6.035410703
2032,5.920724151
2033,5.981031037
2034,5.991886667
2035,6.006782241
2036,5.923483839
2037,6.026261321
2038,6.03224561
2039,5.979586061
2040,6.032490307
2041,6.032619502
2042,5.941717925
2043,5.996998164
2044,6.095811971
2045,5.952935657
2046,5.91386501
2047,5.95806369
2048,5.957076921
2049,6.029038348
2050,6.07076539
2051,6.033947743
2052,5.966896633
2053,6.044130254
2054,5.903613082
2055,5.925294465
2056,6.01070245
2057,6.052120042
2058,6.010326549
2059,5.928008491
2060,6.086879659
2061,5.940108717
2062,6.029029318
2063,5.934432177
2064,6.001660615
2065,6.034634499
2066,6.036065651
2067,5.953131578
2068,6.018772433
2069,5.91248638
2070,5.928466118
2071,6.028933005
2072,6.093677591
2073,6.042243267
2074,6.017880799
2075,5.98606516
2076,5.955503407
2077,5.993076181
2078,6.050030695
2079,5.965777181
2080,5.940972535
2081,6.072544331
2082,6.171450276
2083,6.024327418
2084,5.970032913
2085,5.968208831
2086,6.02491412
2087,5.986526435
2088,6.028937677
2089,6.028394164
2090,5.993977784
2091,5.979346859
2092,6.012629123
2093,5.937896183
2094,5.984756328
2095,5.963809316
2096,5.971122999
2097,5.933468769
2098,5.968464808
2099,5.975314757
2100,5.996467824
2101,6.014825968
2102,6.044688931
2103,6.01294571
2104,6.094288152
2105,5.945668203
2106,5.959466321
2107,5.973727183
2108,5.972362742
2109,5.979937254
2110,6.059368504
2111,5.994132873
2112,6.026559791
2113,6.022747765
2114,6.041308198
2115,5.958775253
2116,5.973841977
2117,5.935722434
2118,6.092803272
2119,6.044634359
2120,6.059498921
2121,5.984287692
2122,5.968851627
2123,5.825574559
2124,5.996524298
2125,6.034186562
2126,6.064058814
2127,5.904672719
2128,5.947671061
2129,5.999375645
2130,5.981676855
2131,6.065929319
2132,6.036110762
2133,5.993002667
2134,6.039719028
2135,6.041795858
2136,6.019153733
2137,6.022821149
2138,6.009626497
2139,6.067694875
2140,5.92942684
2141,5.965620134
2142,6.018209497
2143,5.927249058
2144,5.931776291
2145,5.996425692
2146,5.984997593
2147,6.075002361
2148,6.042715817
2149,5.960991113
2150,6.035292047
2151,5.969571076
2152,5.943442991
2153,6.027983306
2154,5.947743658
2155,5.960925272
2156,5.986203738
2157,5.989956959
2158,5.923625613
2159,5.970488644
2160,6.08961301
2161,5.984881771
2162,5.949141244
2163,6.02183918
2164,6.049248107
2165,6.104288862
2166,6.085230936
2167,6.029002733
2168,6.078737154
2169,5.940792908
2170,5.994652698
2171,5.978398288
2172,6.043948642
2173,6.014394051
2174,6.017487383
2175,5.952928757
2176,5.935697332
2177,6.008585538
2178,5.990443498
2179,6.01717042
2180,6.016953975
2181,6.020255727
2182,6.003924739
2183,6.013550311
2184,6.022523187
2185,6.015929006
2186,6.107249839
2187,5.982989179
2188,6.098401623
2189,6.065518384
2190,5.962407618
2191,5.965965793
2192,6.001614029
2193,5.901544801
2194,5.926313522
2195,5.98359931
2196,6.007028567
2197,6.043379357
2198,5.964349229
2199,5.958240069
2200,6.035399561
2201,5.945374734
2202,5.938628587
2203,6.085290213
2204,6.007858952
2205,6.066405628
2206,5.954271055
2207,5.994817814
2208,5.947531042
2209,5.928727499
2210,6.062128061
2211,5.983000278
2212,6.007335634
2213,6.052316049
2214,5.979536285
2215,5.97422047
2216,5.92659856
2217,5.972058956
2218,5.935287314
2219,5.984260451
2220,6.006946863
2221,6.017231949
2222,5.98637739
2223,5.974305625
2224,6.027778629
2225,6.000689954
2226,6.026286403
2227,5.944543275
2228,5.992359
2229,5.933843007
2230,6.027228498
2231,6.043403391
2232,6.034659441
2233,5.995346796
2234,6.066057704
2235,5.933760771
2236,5.98029484
2237,5.923847905
2238,5.985881963
2239,5.95486664
2240,5.988350491
2241,6.02914301
2242,5.971407954
2243,5.976090649
2244,5.959507257
2245,5.919221518
2246,6.088813083
2247,6.031407755
2248,6.068473393
2249,5.986883433
2250,6.09546206
2251,5.980786603
2252,5.910257789
2253,5.944609216
2254,6.0145419
2255,5.972870565
2256,5.998782875
2257,6.019052705
2258,6.065185909
2259,5.986221166
2260,5.95943819
2261,5.926756422
2262,6.068665775
2263,6.017429152
2264,6.067897002
2265,5.986562768
2266,5.991514755
2267,5.96501803
2268,6.055272947
2269,6.07484845
2270,5.979956626
2271,6.036313595
2272,6.032238511
2273,6.016072278
2274,5.920506581
2275,6.058604655
2276,5.909270075
2277,5.879594225
2278,5.958280497
2279,6.048326137
2280,5.944681731
2281,5.960080922
2282,5.988570291
2283,6.000933394
2284,6.012781023
2285,5.957731171
2286,5.986580265
2287,5.957313315
2288,5.926708351
2289,5.947351046
2290,6.019750071
2291,6.014661619
2292,5.984809271
2293,6.051989579
2294,6.013207028
2295,6.0042244
2296,5.94177972
2297,6.013769014
2298,5.958509816
2299,6.012933712
2300,6.021565764
2301,6.011364421
2302,5.980203966
2303,5.968402392
2304,6.082828829
2305,6.061420286
2306,5.997737611
2307,5.953435952
2308,6.060586924
2309,6.010067879
2310,6.021660265
2311,6.011603729
2312,6.040429547
2313,6.037749771
2314,6.065996716
2315,5.897426204
2316,6.003736139
2317,6.03754958
2318,5.92928392
2319,6.003999084
2320,5.968102945
2321,5.984878156
2322,6.04985697
2323,6.002709638
2324,5.954899777
2325,6.061954471
2326,6.000496743
2327,6.0198358
2328,6.025243127
2329,6.000618595
2330,5.942150555
2331,6.017058472
2332,5.990449906
2333,5.978207434
2334,6.033763963
2335,5.897094574
2336,5.952906164
2337,6.075810523
2338,5.964336457
2339,5.967816617
2340,6.064664313
2341,6.07473099
2342,6.052891595
2343,6.130191397
2344,5.951428864
2345,5.898380776
2346,5.969755509
2347,5.989249226
2348,6.017807052
2349,5.903187192
2350,6.006214409
2351,5.967288126
2352,6.043362039
2353,5.966218163
2354,5.997152236
2355,6.001811823
2356,6.002931419
2357,6.076194778
2358,6.017489189
2359,6.040147363
2360,5.987836683
2361,5.99374121
2362,5.993016079
2363,5.961579346
2364,5.971603058
2365,6.022332736
2366,6.053100369
2367,5.957421446
2368,5.939202942
2369,5.918690281
2370,6.026373277
2371,6.006364852
2372,6.056677076
2373,6.059871287
2374,6.039055826
2375,6.021097791
2376,5.975239169
2377,5.983023482
2378,5.99293439
2379,6.041746581
2380,5.943994479
2381,5.952630928
2382,5.949291891
2383,6.002757099
2384,6.009043737
2385,6.05930283
2386,6.103992156
2387,5.995090071
2388,5.98580006
2389,6.063421142
2390,6.036800569
2391,6.024582974
2392,6.037816503
2393,5.934948208
2394,5.975521421
2395,6.031737132
2396,5.959494028
2397,6.024008604
2398,5.961565865
2399,5.994047792
2400,5.998202664
2401,6.016115795
2402,5.980990941
2403,5.985121044
2404,5.879654236
2405,6.016781102
2406,5.976026155
2407,5.932376137
2408,5.973285062
2409,6.07521242
2410,5.941943056
2411,6.047385442
2412,5.994255244
2413,5.943880011
2414,5.826485297
2415,5.997999884
2416,6.066265656
2417,5.910780489
2418,6.032806329
2419,6.012188379
2420,5.997571713
2421,5.966197708
2422,5.981362978
2423,5.947167962
2424,6.053413463
2425,5.998675341
2426,6.011884326
2427,5.990280859
2428,5.995781446
2429,5.979569954
2430,5.962976904
2431,6.059928465
2432,5.96928182
2433,5.965049625
2434,6.012851627
2435,5.952433038
2436,5.996359051
2437,5.914711645
2438,6.030890127
2439,6.125410173
2440,6.000336601
2441,5.975402758
2442,6.09685765
2443,6.072765407
2444,5.909829625
2445,6.00351627
2446,6.098886072
2447,6.032128827
2448,5.992725176
2449,6.020571284
2450,5.981397176
2451,6.038932143
2452,5.996810552
2453,5.940803815
2454,6.017790933
2455,6.062072962
2456,5.998876421
2457,5.990527024
2458,5.999259968
2459,6.01032764
2460,6.036137123
2461,6.053420571
2462,6.042248551
2463,6.061548587
2464,6.02420643
2465,5.94865295
2466,6.031147839
2467,6.057469366
2468,6.056587012
2469,5.997677285
2470,5.992324339
2471,5.992273453
2472,5.983251554
2473,5.997893501
2474,6.057020808
2475,5.907606881
2476,5.990655353
2477,6.081515465
2478,5.969132073
2479,5.998578021
2480,5.946245115
2481,5.958743981
2482,6.032787639
2483,5.947372004
2484,6.012382366
2485,5.95490505
2486,6.020029591
2487,6.121797783
2488,6.049020833
2489,6.010726695
2490,5.952620463
2491,6.00303198
2492,5.995149387
2493,5.985841639
2494,5.940277861
2495,5.955596495
2496,6.0265863
2497,6.12091445
2498,5.990053527
2499,5.981808806
2500,6.024018864
2501,5.934238772
2502,5.984176582
2503,6.033169358
2504,5.927347104
2505,6.140625509
2506,6.008874305
2507,5.984066288
2508,5.896561787
2509,6.027352594
2510,6.11102892
2511,6.008413745
2512,6.098557903
2513,5.89788868
2514,6.124255229
2515,5.932125889
2516,6.082837462
2517,6.040137328
2518,6.105957934
2519,6.048780882
2520,5.988230174
2521,6.04024627
2522,6.020107262
2523,6.046471471
2524,5.918089265
2525,5.947631676
2526,6.016145876
2527,6.013311359
2528,5.980473683
2529,5.951151566
2530,5.929261598
2531,5.928843513
2532,6.022359253
2533,6.010449451
2534,6.052959046
2535,6.004389319
2536,5.963692727
2537,5.966069108
2538,6.066420727
2539,5.965891754
2540,6.020047331
2541,6.01228083
2542,5.925042055
2543,6.025251588
2544,6.062547848
2545,5.941405034
2546,6.03684659
2547,6.027722078
2548,6.113941454
2549,6.015718408
2550,5.985639634
2551,5.99513835
2552,5.921811397
2553,5.921160731
2554,6.048801545
2555,6.001618597
2556,5.970405096
2557,6.018712831
2558,5.970791289
2559,6.035354467
2560,5.949712035
2561,6.031659756
2562,5.941597943
2563,6.037434412
2564,5.946230295
2565,6.045306996
2566,6.087397609
2567,5.944426516
2568,6.123444142
2569,6.06757184
2570,6.005761685
2571,5.924796374
2572,5.902763604
2573,6.020351898
2574,6.019602295
2575,6.127581912
2576,6.026241094
2577,5.941448825
2578,6.05124454
2579,5.941362689
2580,6.017054277
2581,6.051798487
2582,5.937062348
2583,5.916758752
2584,5.975969291
2585,6.003077763
2586,5.965626529
2587,5.938321557
2588,5.986294752
2589,5.981247554
2590,5.923487955
2591,5.954648694
2592,6.03138107
2593,6.032150311
2594,6.00793389
2595,6.039005224
2596,6.070319274
2597,6.049660844
2598,6.04836143
2599,5.990283002
2600,5.964401535
2601,5.915534027
2602,5.969182711
2603,5.982764209
2604,5.963768074
2605,6.045300738
2606,5.980337002
2607,5.932301942
2608,5.917471489
2609,6.00951488
2610,5.975441187
2611,5.978315299
2612,6.003237217
2613,6.032603679
2614,6.024587201
2615,5.974186179
2616,6.035270457
2617,6.028298417
2618,6.01267592
2619,6.042755992
2620,6.037807397
2621,5.981317315
2622,6.01069644
2623,6.02747747
2624,6.039749966
2625,5.936745821
2626,6.120427597
2627,5.932985669
2628,6.037405632
2629,5.987492711
2630,6.07130504
2631,5.995355954
2632,6.059189127
2633,5.927748889
2634,6.085923236
2635,6.045032385
2636,5.986630039
2637,6.000172798
2638,6.017611099
2639,5.895222001
2640,6.014765573
2641,5.980505718
2642,5.999462037
2643,6.067952316
2644,6.046059082
2645,6.073363879
2646,5.962433528
2647,5.976578976
2648,6.032700203
2649,6.021367279
2650,6.014516826
2651,6.018160354
2652,5.998771401
2653,6.010703595
2654,5.968834598
2655,6.077734702
2656,6.064780351
2657,5.985343947
2658,6.05633316
2659,5.997585292
2660,6.064837809
2661,6.000192628
2662,5.984562216
2663,5.975086006
2664,6.078678381
2665,6.017581927
2666,6.008230138
2667,6.03880872
2668,6.104893643
2669,6.019990827
2670,6.083075201
2671,5.91608924
2672,6.039060767
2673,6.006569851
2674,5.955276496
2675,6.0001469
2676,5.954500878
2677,5.88369563
2678,6.084820958
2679,5.955840409
2680,5.999207894
2681,6.053377381
2682,5.944757266
2683,6.004350334
2684,5.981268586
2685,6.042004544
2686,5.949252736
2687,5.99664488
2688,5.959768294
2689,5.940066524
2690,6.013655122
2691,6.02088051
2692,5.990338318
2693,6.016583352
2694,6.015049828
2695,5.978970383
2696,6.032105439
2697,6.046341328
2698,5.984759581
2699,5.997776559
2700,6.051862402
2701,5.898675828
2702,5.947082708
2703,6.005658732
2704,6.012169412
2705,5.999139941
2706,5.966965522
2707,6.008889662
2708,5.976411155
2709,6.087201353
2710,6.023250261
2711,6.006278218
2712,5.96110061
2713,6.028086699
2714,5.971251976
2715,5.980760654
2716,5.97334022
2717,5.903910182
2718,6.002751166
2719,6.04449313
2720,5.975863627
2721,6.035261157
2722,5.991287755
2723,5.89891881
2724,6.017936308
2725,6.006525183
2726,6.030675964
2727,5.944848027
2728,5.931479582
2729,5.990797646
2730,5.948661146
2731,5.935590148
2732,6.007038087
2733,6.098309408
2734,5.964875609
2735,5.89852955
2736,5.939928751
2737,6.102093145
2738,5.909204553
2739,5.972489457
2740,5.996787919
2741,6.041239968
2742,5.979811556
2743,6.042228653
2744,5.986094925
2745,5.985967122
2746,5.94602742
2747,5.956546316
2748,5.981777883
2749,5.931885061
2750,6.031197133
2751,5.933293336
2752,6.033314739
2753,6.052034468
2754,6.002590311
2755,6.03691179
2756,5.999380068
2757,6.00311038
2758,6.040679562
2759,5.960400603
2760,6.042730359
2761,6.006179702
2762,6.011423018
2763,6.096836409
2764,6.053748935
2765,6.008480642
2766,6.043186864
2767,6.025897427
2768,5.98496942
2769,6.067314514
2770,6.010019403
2771,6.108182122
2772,5.959736699
2773,6.003522179
2774,5.989058136
2775,5.999765075
2776,6.040567885
2777,6.00722528
2778,5.988909689
2779,6.017023538
2780,6.041176617
2781,6.013124926
2782,5.999523276
2783,5.860547793
2784,6.135267706
2785,5.988955423
2786,5.943139531
2787,6.029670305
2788,5.996215972
2789,6.026853753
2790,5.848243145
2791,5.986696201
2792,6.036130762
2793,5.942736155
2794,6.05461395
2795,6.036236494
2796,6.051523404
2797,5.984130509
2798,6.011247267
2799,5.986799268
2800,5.933333618
2801,6.132402763
2802,5.999741026
2803,6.076723988
2804,6.104552588
2805,5.997261728
2806,5.921623559
2807,6.076117519
2808,6.004343004
2809,5.924992846
2810,6.041797801
2811,5.886300868
2812,6.081222532
2813,5.987975886
2814,6.037353112
2815,6.006260658
2816,5.935119544
2817,5.977374758
2818,5.970165244
2819,6.045363919
2820,5.952836295
2821,5.989632793
2822,6.012155753
2823,6.071151332
2824,6.036998114
2825,6.087908748
2826,5.863803792
2827,5.946219115
2828,6.073435829
2829,5.961253158
2830,5.93949574
2831,5.988842238
2832,5.970177402
2833,5.996850884
2834,5.928179139
2835,6.115152979
2836,5.947193495
2837,6.001770298
2838,6.047747062
2839,6.010748079
2840,5.996099789
2841,5.942869186
2842,6.075385771
2843,5.925998476
2844,6.022688965
2845,6.018829563
2846,6.033024962
2847,6.065066099
2848,6.092336704
2849,5.996213453
2850,5.896766589
2851,5.995574362
2852,6.004326103
2853,5.998669376
2854,5.904354494
2855,5.995112086
2856,5.982291201
2857,6.04584966
2858,5.947330108
2859,6.014300437
2860,6.020623939
2861,6.030680986
2862,6.034951102
2863,6.064513094
2864,5.904578222
2865,5.964433233
2866,5.958108628
2867,5.930557013
2868,6.084510645
2869,6.001319704
2870,5.959040211
2871,5.945457964
2872,5.98574732
2873,5.994951084
2874,5.996179867
2875,6.012782665
2876,5.99048467
2877,6.101775502
2878,5.955225964
2879,5.959694203
2880,5.953847713
2881,6.01599468
2882,6.03925869
2883,6.029099364
2884,6.028900336
2885,5.989199117
2886,5.980970772
2887,6.16335632
2888,5.944957901
2889,6.075375085
2890,6.033263036
2891,6.129634614
2892,6.000069965
2893,6.05543392
2894,5.963165305
2895,6.071695131
2896,6.05682978
2897,5.970402142
2898,6.086871852
2899,5.972280907
2900,5.957683124
2901,6.016437244
2902,5.998626184
2903,6.000800215
2904,5.951966195
2905,5.999820955
2906,5.956696486
2907,6.052319941
2908,5.877525337
2909,6.020795122
2910,5.968478465
2911,6.052656683
2912,6.010426745
2913,5.96877565
2914,5.877804806
2915,5.983142273
2916,5.893579353
2917,6.01047203
2918,6.011679637
2919,5.998623405
2920,5.95073126
2921,5.899853004
2922,5.981686512
2923,5.959753323
2924,6.012151787
2925,6.078099237
2926,5.958211561
2927,5.968306645
2928,5.910542103
2929,6.003179965
2930,6.040150654
2931,6.078855594
2932,5.982570609
2933,6.060168147
2934,6.010556451
2935,5.985810387
2936,5.975331314
2937,5.949290144
2938,5.965653908
2939,5.984136956
2940,5.937107185
2941,5.998517498
2942,5.993697069
2943,6.026117862
2944,6.069410706
2945,5.931665616
2946,5.980543023
2947,5.985907117
2948,5.982930333
2949,6.013625285
2950,6.017462339
2951,6.021720918
2952,5.981415489
2953,5.99658663
2954,6.021147638
2955,5.984999322
2956,6.040053134
2957,5.977286257
2958,5.99028589
2959,5.991639485
2960,5.995776075
2961,6.029512702
2962,5.939134707
2963,6.018794429
2964,6.046161427
2965,5.963168449
2966,6.009146728
2967,6.013200199
2968,6.00277042
2969,5.962512651
2970,5.985884828
2971,5.955075829
2972,6.009446325
2973,6.057606352
2974,6.04364682
2975,6.027526007
2976,6.019443663
2977,6.030545791
2978,6.084134317
2979,6.058534468
2980,5.990329923
2981,6.077161548
2982,6.017131254
2983,6.013212557
2984,5.98028001
2985,6.049296323
2986,5.976617448
2987,6.075043153
2988,6.051728546
2989,6.012210332
2990,6.002144093
2991,6.091669873
2992,5.989413893
2993,6.036059629
2994,6.086214022
2995,6.029200418
2996,5.879360109
2997,6.029972178
2998,6.025923236
2999,6.035328811
3000,5.919166031
3001,6.147057985
3002,6.048509784
3003,5.972106309
3004,5.951688575
3005,5.997422112
3006,5.987926328
3007,6.020510795
3008,5.967881899
3009,6.068384318
3010,5.98157957
3011,5.928189716
3012,6.042984085
3013,6.022422704
3014,5.997813221
3015,6.078634011
3016,5.911342229
3017,6.05652593
3018,5.989063591
3019,5.898755055
3020,5.896659891
3021,5.993444722
3022,5.949706154
3023,5.992127385
3024,5.986328588
3025,5.968724034
3026,6.014118404
3027,6.01435231
3028,5.974751942
3029,5.969019743
3030,6.063292634
3031,5.954588814
3032,5.986986246
3033,6.035826337
3034,6.047712981
3035,6.010701713
3036,5.952188342
3037,5.945837758
3038,6.072361443
3039,5.984337248
3040,6.020921938
3041,6.007943676
3042,6.080926254
3043,5.965428995
3044,6.003787298
3045,5.988338442
3046,5.940393652
3047,5.98092227
3048,6.014474149
3049,5.941381351
3050,6.035165699
3051,6.0234606
3052,5.945409171
3053,6.021902424
3054,6.049728955
3055,6.029651532
3056,6.007149514
3057,5.932871057
3058,6.025320906
3059,5.943353914
3060,5.971356972
3061,5.966256543
3062,5.91033461
3063,5.976063025
3064,6.016612712
3065,5.998413103
3066,5.977153374
3067,6.032865284
3068,6.022100781
3069,5.936992405
3070,6.092972916
3071,6.018181337
3072,6.000049718
3073,5.968104749
3074,5.934847579
3075,5.980414277
3076,6.034187707
3077,6.025620374
3078,5.918978084
3079,6.012730922
3080,5.914502562
3081,5.955686071
3082,6.021886888
3083,5.986121589
3084,5.971693999
3085,5.971742643
3086,6.067914592
3087,6.035201196
3088,6.018718063
3089,5.949093156
3090,6.006184512
3091,5.997288803
3092,6.021303327
3093,6.022986417
3094,5.957313549
3095,6.00732043
3096,5.990102405
3097,6.082299018
3098,6.034108799
3099,6.06632465
3100,6.05962943
3101,5.961169052
3102,5.97040863
3103,5.999731667
3104,5.962140103
3105,5.971653848
3106,5.975461987
3107,5.931167538
3108,5.960364565
3109,6.040505154
3110,6.019735163
3111,6.043805016
3112,5.937873567
3113,6.043073292
3114,5.950343509
3115,5.955728793
3116,5.991307334
3117,5.946115012
3118,6.032283885
3119,5.921599505
3120,5.883836138
3121,5.964427949
3122,5.961540429
3123,6.101813593
3124,5.875795857
3125,5.988614078
3126,6.05130522
3127,5.903560812
3128,5.991415105
3129,6.021429069
3130,5.997521476
3131,6.010125935
3132,5.965487395
3133,6.044827251
3134,6.009177148
3135,6.010160397
3136,5.89608267
3137,5.975400037
3138,5.967272072
3139,6.040436271
3140,5.996735612
3141,6.056621057
3142,5.916835713
3143,6.023173217
3144,6.01325556
3145,6.049949491
3146,5.9444805
3147,6.078875353
3148,6.001280869
3149,5.969744544
3150,6.064519819
3151,6.051595281
3152,5.954012894
3153,6.038536975
3154,5.93155562
3155,6.033061346
3156,5.927259808
3157,6.042035605
3158,6.026205155
3159,5.953209505
3160,6.041442362
3161,6.049554398
3162,6.067458888
3163,6.003279031
3164,5.944284248
3165,5.982751146
3166,6.026455243
3167,5.906708218
3168,5.902105269
3169,6.08239902
3170,6.095614452
3171,6.052325759
3172,5.989370166
3173,5.907855095
3174,6.002200015
3175,6.014106463
3176,6.017633681
3177,6.091541022
3178,5.997958251
3179,5.995753304
3180,6.069916112
3181,6.028753687
3182,6.034061832
3183,6.006403727
3184,6.053003341
3185,5.987693432
3186,6.010621503
3187,6.018486262
3188,5.977137254
3189,6.001262548
3190,6.050267627
3191,5.954581896
3192,5.966179835
3193,6.02251489
3194,5.963522208
3195,6.043484583
3196,5.866905192
3197,6.020234206
3198,6.026183624
3199,6.008194261
3200,5.99618574
3201,6.01761631
3202,6.025442492
3203,5.984478514
3204,5.992650024
3205,6.003511616
3206,5.954518214
3207,5.921320028
3208,6.075197595
3209,5.978706031
3210,6.045956786
3211,5.982792546
3212,6.060130917
3213,6.042826107
3214,5.97243465
3215,5.918090663
3216,6.007366774
3217,6.075830651
3218,5.994792315
3219,6.035901781
3220,5.949965488
3221,5.961191443
3222,5.954289703
3223,6.015457151
3224,6.0316787
3225,6.0549515
3226,5.972483883
3227,5.984699873
3228,5.880961844
3229,5.969216987
3230,6.076668654
3231,6.061856396
3232,5.939279413
3233,6.044164479
3234,5.971618127
3235,5.9765904
3236,6.056216037
3237,6.089760781
3238,6.05353492
3239,5.975912675
3240,6.005545055
3241,5.951984669
3242,6.044014839
3243,5.915265454
3244,6.017805169
3245,5.992573287
3246,6.021856565
3247,6.002942107
3248,6.074611959
3249,5.960626258
3250,5.973733086
3251,5.962367647
3252,6.016096743
3253,5.982511602
3254,5.987110969
3255,5.921399335
3256,6.104082852
3257,6.020085624
3258,5.98494087
3259,5.948348119
3260,6.11384968
3261,6.004730158
3262,6.036825016
3263,6.057695358
3264,5.932791673
3265,6.087794433
3266,5.977410432
3267,6.030389799
3268,5.943493268
3269,5.92617277
3270,6.009684722
3271,6.069690066
3272,6.044834651
3273,6.073810344
3274,5.940524915
3275,5.966021941
3276,5.964421934
3277,6.003872292
3278,5.947801542
3279,6.034247648
3280,6.077311896
3281,6.070179744
3282,6.081559236
3283,6.103224258
3284,5.992825738
3285,5.947804986
3286,5.923123211
3287,5.924688408
3288,6.031356304
3289,6.030999954
3290,5.970949066
3291,5.939658217
3292,6.062653426
3293,6.020924141
3294,5.994986691
3295,6.013938099
3296,6.089908646
3297,6.011614445
3298,5.968729329
3299,6.03661372
3300,5.901855391
3301,6.0082259
3302,6.036310063
3303,6.038114152
3304,5.981601018
3305,5.868291685
3306,6.05858305
3307,5.922841413
3308,5.958777703
3309,6.035207213
3310,5.988321065
3311,5.920035419
3312,5.950230088
3313,6.007860023
3314,5.935997137
3315,6.079228619
3316,6.045956984
3317,6.041722608
3318,5.986157615
3319,6.007107685
3320,6.01185983
3321,5.966659831
3322,5.948729635
3323,5.970685135
3324,6.068766366
3325,6.045311112
3326,5.953455021
3327,5.989582143
3328,6.004821529
3329,5.950760422
3330,5.936010995
3331,6.009654246
3332,5.982112466
3333,5.912630944
3334,6.008764029
3335,5.896010945
3336,6.051821395
3337,6.098867868
3338,6.042395611
3339,5.963144834
3340,5.995805055
3341,5.904770064
3342,5.947096291
3343,5.989690507
3344,5.990915285
3345,6.036444621
3346,5.979347877
3347,5.952810197
3348,5.923182984
3349,5.94313699
3350,6.012849191
3351,5.982028486
3352,5.944903833
3353,6.007572621
3354,5.980583747
3355,6.056253246
3356,6.047362931
3357,5.946721073
3358,5.965599119
3359,6.024059215
3360,6.011804306
3361,6.05687214
3362,6.003231679
3363,5.849180205
3364,5.995103816
3365,6.032414231
3366,6.04492852
3367,5.945204947
3368,6.012980677
3369,5.948855019
3370,6.010264423
3371,5.935597749
3372,5.958691598
3373,6.031371124
3374,6.04690443
3375,6.034586141
3376,5.923390898
3377,5.96585813
3378,5.894396197
3379,5.949823313
3380,6.059254617
3381,5.94355694
3382,6.021556852
3383,5.957663738
3384,6.02317766
3385,6.057126609
3386,6.053233078
3387,5.95980342
3388,5.914824276
3389,5.979769547
3390,5.915696333
3391,5.996543072
3392,6.069563763
3393,6.078562762
3394,6.010352259
3395,5.951148735
3396,6.026029408
3397,6.020704109
3398,6.03630237
3399,5.974665525
3400,5.997367898
3401,6.032666165
3402,5.946308081
3403,6.060514965
3404,6.03857187
3405,6.064603574
3406,6.083901034
3407,6.047074637
3408,5.987449722
3409,6.055933067
3410,6.031227523
3411,6.003322845
3412,5.933168287
3413,6.053873247
3414,6.002097721
3415,5.971416652
3416,6.00657594
3417,6.002311863
3418,6.036838461
3419,5.880445632
3420,6.015787244
3421,6.08243566
3422,5.940998516
3423,5.978071615
3424,5.988268969
3425,6.033106397
3426,6.01158025
3427,6.045325868
3428,5.975656557
3429,5.958456527
3430,6.006409712
3431,5.942879046
3432,6.012461345
3433,6.073309208
3434,6.003064177
3435,6.051751102
3436,5.919641095
3437,5.91479945
3438,5.89683051
3439,5.956518914
3440,6.023431433
3441,5.972044808
3442,6.020501049
3443,5.941960715
3444,6.027782169
3445,6.056887163
3446,5.979363689
3447,6.017891813
3448,5.870586312
3449,6.052957563
3450,6.036615928
3451,5.957415025
3452,6.039374955
3453,5.994605671
3454,5.982920958
3455,5.986372605
3456,6.011617586
3457,5.997284872
3458,6.015478745
3459,5.982070178
3460,5.930878097
3461,5.982779759
3462,6.011377681
3463,6.041491103
3464,5.988305182
3465,5.950195959
3466,6.045883017
3467,6.054792776
3468,6.031690209
3469,6.043468691
3470,5.958580669
3471,6.03699233
3472,6.023247912
3473,5.920979132
3474,6.001849005
3475,5.942245765
3476,5.964328325
3477,6.003447666
3478,5.943661196
3479,5.969374274
3480,6.019347086
3481,6.075513969
3482,5.987579652
3483,6.016712923
3484,5.963152178
3485,6.067796018
3486,6.074854323
3487,6.116035732
3488,5.980226968
3489,6.038246678
3490,5.930654266
3491,6.051082406
3492,6.03632672
3493,6.017457551
3494,5.939773256
3495,6.05360557
3496,6.049340124
3497,6.020863044
3498,5.959261498
3499,5.986206293
3500,6.106492998
3501,6.022340485
3502,5.962183847
3503,6.009313877
3504,6.013639281
3505,6.003139217
3506,5.939916831
3507,6.066739395
3508,5.974423802
3509,6.048526086
3510,6.065547438
3511,5.938075672
3512,5.944324554
3513,5.923993419
3514,5.952437302
3515,6.002816277
3516,5.994710223
3517,5.984905279
3518,5.889276023
3519,5.990857308
3520,5.961002903
3521,5.958402869
3522,5.982492776
3523,5.947684688
3524,6.027624352
3525,5.921175747
3526,5.968705167
3527,6.022146731
3528,6.054137647
3529,5.980138389
3530,5.996303421
3531,6.071038013
3532,6.013379282
3533,5.946817529
3534,6.079553316
3535,6.024249572
3536,6.044253371
3537,5.97009002
3538,5.954634515
3539,6.03984582
3540,5.972649184
3541,5.985424423
3542,5.971957657
3543,5.978007848
3544,6.05476067
3545,5.959837949
3546,5.984405826
3547,5.94363691
3548,5.987601041
3549,5.989965609
3550,5.978166139
3551,5.990482541
3552,6.031508775
3553,6.062244547
3554,5.925973875
3555,5.982396717
3556,5.981657585
3557,5.989639195
3558,5.957551552
3559,6.013033903
3560,6.001084558
3561,6.012935852
3562,6.022412824
3563,6.047775402
3564,5.955736658
3565,5.841386457
3566,6.028628543
3567,6.035972186
3568,6.018812461
3569,5.953497167
3570,5.997897314
3571,6.030118623
3572,5.999720425
3573,6.029322475
3574,5.945359046
3575,6.023515444
3576,5.98765139
3577,5.937946632
3578,6.01212123
3579,6.037962271
3580,5.972618101
3581,6.048397657
3582,5.960562658
3583,5.967814912
3584,6.019073727
3585,5.965933853
3586,5.980516309
3587,5.97084561
3588,5.99345135
3589,5.98073194
3590,6.045871688
3591,6.041133521
3592,6.004786048
3593,6.066429976
3594,5.982223493
3595,6.003433082
3596,5.999259374
3597,5.967044353
3598,6.037207669
3599,6.02086813
3600,5.973630516
3601,5.896613529
3602,5.994366783
3603,5.965190272
3604,5.983950998
3605,6.052875863
3606,5.993837265
3607,6.052676838
3608,6.001519854
3609,5.980175417
3610,6.037623926
3611,5.901571819
3612,6.003502634
3613,5.993097555
3614,5.908112
3615,5.977753029
3616,6.001926531
3617,5.993381738
3618,6.045135162
3619,6.067696075
3620,6.039275126
3621,5.955048879
3622,5.956704701
3623,6.024732334
3624,5.974494518
3625,5.996458246
3626,5.939405725
3627,5.974172007
3628,5.952905871
3629,6.001919625
3630,5.94511202
3631,6.058119941
3632,6.045088299
3633,5.976174611
3634,6.008582892
3635,5.985995459
3636,5.975338679
3637,5.98015293
3638,5.957099203
3639,5.973545773
3640,6.012437941
3641,6.023617497
3642,5.947050859
3643,6.052258692
3644,5.970805874
3645,5.91903711
3646,6.077759177
3647,5.942499494
3648,5.983097503
3649,5.969478254
3650,5.970742596
3651,5.925147393
3652,5.964675593
3653,5.948859548
3654,6.046423876
3655,6.063871662
3656,6.01241841
3657,6.020160666
3658,5.944711191
3659,6.037896887
3660,6.000446705
3661,5.977546786
3662,5.991236813
3663,5.994538971
3664,6.010099141
3665,5.978452302
3666,6.09491404
3667,5.957690023
3668,5.913611247
3669,5.881237899
3670,6.035555508
3671,5.962159541
3672,6.003341936
3673,6.078337095
3674,6.051868174
3675,5.945587741
3676,6.019660388
3677,5.917336764
3678,6.110518084
3679,6.020146026
3680,5.966210925
3681,6.042919219
3682,5.996614993
3683,6.013188946
3684,6.070214526
3685,5.943440611
3686,6.045703214
3687,6.056323351
3688,5.923346177
3689,6.056764102
3690,5.987821886
3691,5.896027061
3692,6.028709365
3693,6.007523047
3694,6.012553566
3695,6.018772548
3696,6.024881032
3697,6.058403719
3698,6.043520056
3699,5.979900073
3700,5.971676083
3701,5.99657262
3702,5.985054932
3703,5.943727398
3704,5.95725872
3705,5.96377692
3706,5.894329643
3707,5.879537688
3708,5.932158707
3709,6.024851904
3710,6.017204557
3711,6.025983132
3712,6.041883013
3713,6.031574149
3714,5.969698467
3715,5.986674123
3716,6.030418897
3717,5.983057619
3718,5.904999905
3719,5.996807466
3720,5.989036271
3721,6.038776956
3722,6.009877586
3723,6.045252544
3724,5.991929917
3725,6.007556079
3726,5.994742087
3727,6.065478862
3728,5.982295151
3729,6.020082715
3730,5.90873091
3731,5.998252373
3732,6.028126557
3733,5.98620459
3734,5.989824177
3735,6.020109213
3736,5.965343864
3737,5.963490095
3738,6.096843217
3739,6.033767325
3740,5.909610688
3741,6.029881716
3742,6.007366882
3743,6.07130458
3744,5.949528966
3745,6.035884005
3746,5.997457188
3747,6.026301646
3748,6.018357882
3749,5.905249489
3750,6.06473622
3751,5.945596091
3752,5.924253145
3753,5.977453795
3754,5.930821711
3755,5.975392787
3756,5.915799564
3757,5.966946019
3758,5.970258943
3759,5.957466967
3760,5.936244359
3761,6.008159994
3762,5.975289759
3763,6.014240364
3764,6.10250257
3765,5.965670776
3766,6.047283025
3767,6.030712732
3768,5.995008079
3769,5.98520597
3770,5.989503996
3771,5.978598245
3772,6.008571628
3773,6.002614752
3774,6.083923234
3775,6.002613343
3776,5.977168576
3777,5.934143661
3778,5.997266222
3779,5.903362865
3780,6.016138594
3781,5.985382761
3782,5.947229527
3783,6.048734425
3784,5.977741317
3785,6.002474998
3786,5.939322336
3787,6.016031696
3788,5.93102783
3789,6.040474018
3790,5.988210705
3791,5.989405657
3792,6.047121464
3793,6.008070104
3794,5.930018376
3795,6.068829702
3796,6.028989533
3797,6.014432935
3798,5.948908107
3799,6.044577826
3800,5.969108678
3801,6.026884229
3802,6.017226195
3803,6.030929378
3804,6.020354267
3805,5.905008694
3806,5.982293607
3807,5.91489413
3808,5.963293971
3809,5.998765353
3810,6.005580885
3811,5.996337973
3812,6.018502479
3813,5.992137194
3814,5.904835201
3815,5.964676228
3816,5.932817221
3817,6.147567513
3818,6.096369467
3819,6.070533125
3820,5.941377474
3821,5.965965312
3822,5.97041328
3823,5.9345087
3824,6.006372346
3825,5.978263551
3826,5.967512539
3827,5.883189839
3828,5.974498782
3829,6.039597443
3830,5.982510647
3831,6.076483993
3832,6.062285442
3833,5.996168144
3834,6.017428979
3835,5.926087142
3836,6.008101027
3837,6.004057055
3838,5.990372207
3839,6.04849221
3840,6.001702988
3841,5.999665665
3842,5.910511087
3843,5.993497629
3844,5.992149668
3845,6.015641829
3846,5.968560157
3847,5.938063465
3848,6.023172797
3849,6.049723618
3850,6.006350389
3851,5.917800282
3852,6.004403392
3853,5.976058058
3854,6.005402219
3855,5.945878905
3856,6.019110693
3857,6.062359127
3858,5.957996419
3859,6.008412109
3860,6.09735435
3861,5.90641787
3862,5.99303067
3863,5.92877743
3864,6.02083474
3865,6.10173046
3866,5.925687806
3867,6.05748176
3868,5.941781706
3869,6.058790862
3870,5.995700797
3871,6.013215411
3872,6.039054657
3873,5.986841245
3874,5.918984098
3875,5.980797681
3876,5.996332052
3877,5.973019028
3878,5.999565202
3879,6.008559128
3880,6.009643688
3881,6.036623565
3882,6.019974182
3883,6.028603421
3884,6.025272424
3885,6.046458766
3886,6.045153369
3887,6.081611056
3888,5.917404928
3889,5.959469247
3890,5.965988257
3891,6.004044779
3892,6.037832328
3893,5.986391642
3894,5.978415225
3895,6.102301534
3896,5.982563736
3897,6.121827978
3898,5.975429072
3899,6.078531766
3900,5.916006708
3901,6.071903942
3902,6.0144475
3903,5.951770709
3904,5.895893626
3905,5.970618194
3906,5.946068352
3907,5.966740652
3908,5.972291374
3909,6.024057268
3910,6.124918234
3911,6.023710018
3912,6.125954685
3913,5.933078022
3914,5.968989343
3915,6.014674129
3916,5.949792341
3917,5.968251421
3918,6.007312013
3919,6.010924883
3920,6.053055323
3921,5.989065203
3922,6.009046806
3923,6.075353236
3924,6.069921199
3925,6.028668476
3926,6.057504047
3927,6.006810797
3928,6.042413054
3929,6.049043355
3930,5.971781676
3931,6.054646928
3932,6.028372079
3933,5.959852404
3934,5.999959057
3935,6.007862998
3936,5.958286789
3937,5.988004957
3938,5.962822273
3939,6.029915712
3940,6.029949418
3941,6.018370797
3942,6.008386592
3943,6.010083966
3944,5.983905067
3945,5.983319177
3946,6.007885758
3947,5.95331907
3948,6.005795264
3949,5.995828944
3950,5.972623176
3951,5.945762839
3952,5.917393436
3953,5.980219172
3954,5.983687896
3955,5.991902768
3956,6.047175946
3957,6.035052542
3958,6.067479949
3959,5.889545179
3960,5.964835229
3961,5.971464985
3962,6.046864808
3963,6.066369075
3964,6.058814209
3965,6.06956665
3966,5.926416577
3967,5.947602211
3968,6.023125739
3969,6.032450662
3970,5.953957993
3971,6.006390806
3972,5.952783272
3973,5.998418563
3974,6.005876067
3975,6.053870314
3976,6.002260401
3977,5.961520575
3978,5.962234627
3979,6.017533221
3980,6.019449267
3981,5.98885601
3982,6.012094066
3983,6.019291666
3984,6.02561103
3985,5.965538885
3986,5.935820286
3987,5.961767011
3988,6.009975368
3989,5.950971077
3990,6.028210908
3991,5.978981375
3992,6.041525546
3993,6.054861747
3994,5.919008576
3995,5.972065567
3996,6.071873888
3997,6.027729585
3998,5.909971497
3999,6.013095263
4000,5.957372143
