Raman Shift,Intensity
93.93005,420.3299
94.41217,412.7877
94.89429,402.8993
95.3764,392.0598
95.85852,381.0765
96.34064,370.7094
96.82275,361.6843
97.30487,353.1859
97.78699,343.0096
98.2691,331.725
98.75122,319.013
99.23334,304.3652
99.71545,287.6617
100.1976,269.8498
100.6797,250.9062
101.1618,232.1349
101.6439,215.8337
102.126,202.8174
102.6081,192.2234
103.0903,182.5042
103.5724,173.2083
104.0545,165.4472
104.5366,159.4736
105.0187,154.9711
105.5008,151.3471
105.983,148.1831
106.4651,145.444
106.9472,143.409
107.4293,142.0101
107.9114,141.3299
108.3935,141.5982
108.8757,142.7288
109.3578,144.3882
109.8399,146.1745
110.322,148.0708
110.8041,150.1653
111.2862,152.6461
111.7684,155.1926
112.2505,157.5207
112.7326,159.5492
113.2147,161.3839
113.6968,163.2534
114.1789,165.2938
114.6611,167.1094
115.1432,168.4685
115.6253,169.5405
116.1074,170.6076
116.5895,171.6317
117.0716,172.9336
117.5538,175.11
118.0359,178.4802
118.518,182.1091
119.0001,185.1944
119.4822,187.7033
119.9643,190.5425
120.4465,194.2722
120.9286,198.5891
121.4107,203.2397
121.8928,208.1687
122.3749,213.3749
122.857,218.8762
123.3392,224.5841
123.8213,230.7939
124.3034,237.3011
124.7855,244.2836
125.2676,252.0767
125.7497,260.8511
126.2319,270.6118
126.714,281.1107
127.1961,292.138
127.6782,304.2842
128.1603,318.1975
128.6424,333.4991
129.1246,349.3003
129.6067,365.0633
130.0888,381.0544
130.5709,395.024
131.053,409.6837
131.5351,420.9937
132.0173,426.9672
132.4994,427.264
132.9815,422.3253
133.4636,412.3424
133.9457,396.0758
134.4278,377.2354
134.91,354.2133
135.3921,329.3164
135.8742,304.7611
136.3563,280.8616
136.8384,258.5418
137.3205,239.6905
137.8027,224.0399
138.2848,210.0277
138.7669,197.084
139.249,185.2255
139.7311,174.5075
140.2132,164.9292
140.6954,156.7349
141.1775,149.9872
141.6596,144.7203
142.1417,140.4718
142.6238,137.0009
143.1059,134.3667
143.5881,132.0303
144.0702,129.9089
144.5523,128.0089
145.0344,126.459
145.5165,125.3142
145.9986,124.2882
146.4807,122.8707
146.9629,120.9548
147.445,118.7726
147.9271,116.1108
148.4092,113.3426
148.8913,110.8246
149.3734,108.7182
149.8556,106.9697
150.3377,105.3713
150.8198,103.8113
151.3019,102.5419
151.784,101.6017
152.2661,100.9678
152.7483,100.6303
153.2304,100.5962
153.7125,100.847
154.1946,101.1269
154.6767,101.4061
155.1588,101.7339
155.641,102.0735
156.1231,102.459
156.6052,103.0189
157.0873,103.8917
157.5694,105.061
158.0515,106.0996
158.5337,106.7261
159.0158,107.4122
159.4979,108.6363
159.98,110.4438
160.4621,112.2597
160.9442,113.5359
161.4264,114.4372
161.9085,115.4178
162.3906,116.359
162.8727,117.4986
163.3548,119.378
163.8369,122.3165
164.3191,125.29
164.8012,127.5962
165.2833,129.4074
165.7654,131.0147
166.2475,132.5162
166.7296,133.9215
167.2118,135.3373
167.6939,136.7027
168.176,138.1493
168.6581,139.6017
169.1402,141.14
169.6223,142.9956
170.1045,145.5125
170.5866,148.795
171.0687,151.5504
171.5508,153.6811
172.0329,155.3257
172.515,156.603
172.9972,157.4512
173.4793,157.6723
173.9614,156.9976
174.4435,155.2032
174.9256,153.2221
175.4077,150.8407
175.8899,148.4605
176.372,146.3161
176.8541,144.4312
177.3362,142.6794
177.8183,140.8906
178.3004,138.8777
178.7826,137.3105
179.2647,136.2902
179.7468,135.6128
180.2289,134.9756
180.711,134.3249
181.1931,134.0682
181.6752,134.9747
182.1574,137.5258
182.6395,139.8236
183.1216,141.2398
183.6037,142.4289
184.0858,144.3171
184.5679,147.2545
185.0501,150.6592
185.5322,153.5859
186.0143,156.008
186.4964,158.4502
186.9785,161.5388
187.4606,164.7944
187.9428,167.0945
188.4249,168.1977
188.907,167.9971
189.3891,166.3663
189.8712,163.2612
190.3533,159.834
190.8355,156.6854
191.3176,153.7919
191.7997,151.0659
192.2818,148.3391
192.7639,145.9182
193.246,143.9267
193.7282,142.3669
194.2103,141.3839
194.6924,141.2587
195.1745,142.0732
195.6566,142.9413
196.1387,143.4655
196.6209,144.1561
197.103,145.2778
197.5851,146.8867
198.0672,148.922
198.5493,151.4226
199.0314,154.6032
199.5136,157.5576
199.9957,160.1455
200.4778,162.5335
200.9599,164.8125
201.442,167.0101
201.9241,169.0865
202.4063,171.0077
202.8884,172.8454
203.3705,174.3616
203.8526,175.3988
204.3347,176.27
204.8168,177.1517
205.299,178.1121
205.7811,179.202
206.2632,180.555
206.7453,182.8337
207.2274,184.3616
207.7095,184.4837
208.1917,184.2358
208.6738,184.4906
209.1559,185.5565
209.638,187.2798
210.1201,189.3848
210.6022,192.3608
211.0844,194.9985
211.5665,196.9603
212.0486,198.6579
212.5307,200.5001
213.0128,202.6286
213.4949,205.0431
213.9771,207.7871
214.4592,210.7506
214.9413,214.1775
215.4234,218.2848
215.9055,222.8456
216.3876,227.5746
216.8698,232.4031
217.3519,237.2908
217.834,242.1699
218.3161,246.9021
218.7982,251.9817
219.2803,257.534
219.7625,263.551
220.2446,270.0696
220.7267,277.1657
221.2088,284.668
221.6909,292.3837
222.173,300.3277
222.6552,308.3525
223.1373,316.668
223.6194,325.0545
224.1015,332.8322
224.5836,339.689
225.0657,345.9759
225.5479,352.2087
226.03,358.413
226.5121,364.2008
226.9942,369.8167
227.4763,375.0392
227.9584,378.5562
228.4406,380.0668
228.9227,379.493
229.4048,376.8798
229.8869,372.2956
230.369,366.5826
230.8511,360.2657
231.3333,353.3559
231.8154,345.7706
232.2975,336.7415
232.7796,327.7364
233.2617,319.2604
233.7438,311.4764
234.226,304.779
234.7081,299.617
235.1902,296.0396
235.6723,293.2278
236.1544,290.8209
236.6365,289.5643
237.1187,289.9828
237.6008,291.9619
238.0829,294.9382
238.565,298.4042
239.0471,302.3211
239.5292,307.0155
240.0114,313.2271
240.4935,319.6383
240.9756,326.2496
241.4577,332.7648
241.9398,338.5081
242.4219,342.9462
242.9041,346.0625
243.3862,347.8134
243.8683,348.7846
244.3504,347.8765
244.8325,344.0324
245.3146,337.7579
245.7968,330.444
246.2789,323.4078
246.761,316.7657
247.2431,309.0289
247.7252,298.7099
248.2073,288.7694
248.6895,280.3675
249.1716,273.3247
249.6537,266.9195
250.1358,260.4464
250.6179,253.783
251.1,248.9857
251.5822,246.9742
252.0643,245.5896
252.5464,244.1524
253.0285,242.6951
253.5106,241.6017
253.9927,241.2313
254.4748,241.5769
254.957,241.1781
255.4391,240.0033
255.9212,238.2845
256.4033,236.1018
256.8854,233.4454
257.3676,230.2107
257.8497,226.2707
258.3318,221.6915
258.8139,217.1662
259.296,213.0222
259.7781,208.5897
260.2603,203.2622
260.7424,197.4395
261.2245,191.9882
261.7066,187.4171
262.1887,183.64
262.6708,180.311
263.153,177.473
263.6351,174.8913
264.1172,172.4566
264.5993,170.2181
265.0814,168.1863
265.5635,166.2901
266.0457,164.7287
266.5278,164.2762
267.0099,165.4814
267.492,166.6348
267.9741,166.9017
268.4562,166.7541
268.9384,167.1245
269.4204,168.3742
269.9026,170.352
270.3847,172.8765
270.8668,176.0695
271.3489,179.2567
271.831,182.1736
272.3131,184.9231
272.7953,187.9032
273.2774,191.4202
273.7595,194.7
274.2416,196.3749
274.7237,196.51
275.2058,195.9446
275.688,195.306
276.1701,194.0589
276.6522,191.0761
277.1343,185.8372
277.6164,179.6109
278.0985,173.6741
278.5807,168.0085
279.0628,162.6413
279.5449,157.3566
280.027,152.4514
280.5091,148.3522
280.9912,145.1628
281.4734,142.6547
281.9555,140.7288
282.4376,139.3126
282.9197,138.4147
283.4018,138.335
283.8839,138.6493
284.3661,138.7113
284.8482,138.4078
285.3303,138.3154
285.8124,138.891
286.2945,140.026
286.7766,141.5321
287.2588,143.6425
287.7409,145.9494
288.223,147.8506
288.7051,149.276
289.1872,150.9844
289.6693,153.5665
290.1515,156.7115
290.6336,159.8424
291.1157,163.0212
291.5978,166.0032
292.0799,168.7781
292.562,171.3606
293.0442,172.9854
293.5263,173.1765
294.0084,172.1708
294.4905,170.4354
294.9726,168.0194
295.4547,164.8148
295.9369,160.5821
296.419,155.3691
296.9011,149.7359
297.3832,143.4806
297.8653,137.2744
298.3474,131.7527
298.8296,126.9588
299.3117,122.7039
299.7938,119.0309
300.2759,115.8576
300.758,112.7272
301.2401,109.2875
301.7223,106.2642
302.2044,104.3855
302.6865,103.5385
303.1686,102.8808
303.6507,101.8581
304.1328,100.6546
304.615,99.92812
305.0971,99.93578
305.5792,100.0529
306.0613,99.63283
306.5434,98.91196
307.0255,98.56222
307.5077,99.16058
307.9898,100.2641
308.4719,100.9531
308.954,101.1276
309.4361,101.1691
309.9182,101.2831
310.4004,101.425
310.8825,101.5195
311.3646,101.4946
311.8467,101.4603
312.3288,101.5216
312.8109,101.6569
313.2931,102.0294
313.7752,102.7669
314.2573,103.7775
314.7394,105.035
315.2215,106.6308
315.7036,108.2013
316.1858,109.319
316.6679,109.9856
317.15,110.6692
317.6321,111.3287
318.1142,112.2476
318.5963,113.675
319.0785,115.6371
319.5606,117.9495
320.0427,120.6526
320.5248,123.6717
321.0069,126.4345
321.489,128.5656
321.9712,130.8027
322.4533,134.1117
322.9354,138.2893
323.4175,141.8537
323.8996,143.8288
324.3817,144.6479
324.8639,145.4671
325.346,146.4661
325.8281,147.235
326.3102,147.7059
326.7923,147.7532
327.2744,146.9302
327.7566,144.5833
328.2387,141.534
328.7208,138.9458
329.2029,136.8533
329.685,135.0721
330.1671,133.6701
330.6493,132.4732
331.1314,131.2108
331.6135,129.7805
332.0956,128.3741
332.5777,127.1491
333.0598,126.1066
333.542,125.243
334.0241,124.6528
334.5062,124.183
334.9883,123.5433
335.4704,122.6524
335.9525,121.9905
336.4347,121.9938
336.9168,122.5116
337.3989,122.9393
337.881,123.0607
338.3631,123.2051
338.8452,123.7394
339.3274,124.6252
339.8094,125.6286
340.2916,126.533
340.7737,127.5242
341.2558,128.9069
341.7379,130.7084
342.22,132.9425
342.7021,135.8233
343.1843,139.1853
343.6664,142.5373
344.1485,145.8247
344.6306,149.0553
345.1127,152.2226
345.5948,155.3283
346.077,158.4634
346.5591,161.7885
347.0412,165.126
347.5233,168.0775
348.0054,170.9035
348.4875,172.9446
348.9697,173.729
349.4518,173.3907
349.9339,172.406
350.416,171.021
350.8981,168.9103
351.3802,165.3138
351.8624,160.1429
352.3445,154.688
352.8266,149.1526
353.3087,143.6392
353.7908,138.2717
354.2729,133.0718
354.7551,128.0479
355.2372,123.0999
355.7193,118.2179
356.2014,114.0079
356.6835,110.9114
357.1656,108.2438
357.6478,105.3861
358.1299,102.3457
358.612,99.49346
359.0941,97.06624
359.5762,95.0741
360.0583,93.36105
360.5405,91.92632
361.0226,90.72244
361.5047,89.80515
361.9868,89.09815
362.4689,88.45277
362.951,87.82521
363.4332,87.16682
363.9153,86.3428
364.3974,85.06686
364.8795,84.17818
365.3616,84.02263
365.8438,84.19259
366.3259,84.26781
366.808,84.15096
367.2901,83.96957
367.7722,83.86952
368.2543,83.86337
368.7365,83.91171
369.2186,84.01057
369.7007,84.16251
370.1828,84.50193
370.6649,84.928
371.147,85.08527
371.6292,84.65707
372.1113,83.72477
372.5934,83.30122
373.0755,83.60394
373.5576,84.12765
374.0397,84.96011
374.5219,85.89848
375.004,86.633
375.4861,87.03527
375.9682,87.28315
376.4503,87.76432
376.9324,88.55331
377.4146,89.49264
377.8967,90.59376
378.3788,91.81499
378.8609,93.15091
379.343,94.58705
379.8251,96.09829
380.3073,97.67675
380.7894,99.34675
381.2715,100.902
381.7536,101.8933
382.2357,103.2284
382.7178,105.4307
383.2,108.1946
383.6821,110.9263
384.1642,113.2557
384.6463,115.2818
385.1284,117.3797
385.6105,119.5014
386.0927,121.7954
386.5748,124.4838
387.0569,127.2373
387.539,129.8124
388.0211,132.138
388.5032,134.101
388.9854,135.5574
389.4675,136.4922
389.9496,136.996
390.4317,136.8908
390.9138,136.4656
391.3959,136.0402
391.8781,135.4755
392.3602,134.2205
392.8423,131.5518
393.3244,127.8065
393.8065,124.6776
394.2886,122.4878
394.7708,120.318
395.2529,117.6155
395.735,114.683
396.2171,111.9141
396.6992,109.3807
397.1813,107.1414
397.6635,105.2619
398.1456,103.7455
398.6277,102.5348
399.1098,101.8305
399.5919,101.2556
400.074,100.3454
400.5562,99.06322
401.0383,97.91798
401.5204,97.15313
402.0025,96.73759
402.4846,96.59705
402.9667,96.72973
403.4489,97.10779
403.931,97.78387
404.4131,98.70334
404.8952,99.70312
405.3773,100.6414
405.8594,101.7362
406.3416,103.2768
406.8237,105.2025
407.3058,107.0519
407.7879,108.5375
408.27,109.8396
408.7521,111.4326
409.2343,113.3477
409.7164,115.4011
410.1985,117.6695
410.6806,119.9948
411.1627,122.0204
411.6448,123.6637
412.1269,125.3799
412.609,127.7138
413.0912,130.802
413.5733,133.9138
414.0554,136.9297
414.5375,140.0788
415.0196,143.5481
415.5017,147.2846
415.9839,151.1366
416.466,155.0189
416.9481,158.9219
417.4302,162.8016
417.9123,166.0128
418.3944,170.0229
418.8766,175.4928
419.3587,181.5521
419.8408,187.244
420.3229,192.3294
420.805,197.4206
421.2871,203.4122
421.7693,210.7003
422.2514,217.4489
422.7335,223.4977
423.2156,229.2324
423.6977,235.1694
424.1798,240.9504
424.662,245.7777
425.1441,249.1602
425.6262,251.1878
426.1083,252.0592
426.5904,251.1278
427.0725,250.2591
427.5547,249.7523
428.0368,249.5657
428.5189,249.6692
429.001,250.054
429.4831,250.7366
429.9652,251.6876
430.4474,252.9097
430.9295,254.6369
431.4116,257.1069
431.8937,259.8472
432.3758,262.7274
432.8579,265.6288
433.3401,268.2066
433.8222,270.4078
434.3043,272.1482
434.7864,273.3959
435.2685,274.192
435.7506,274.1046
436.2328,272.7841
436.7149,270.4789
437.197,267.6776
437.6791,264.2772
438.1612,260.7451
438.6433,257.1144
439.1255,253.5562
439.6076,250.3675
440.0897,247.5841
440.5718,245.3468
441.0539,243.8157
441.536,243.0389
442.0182,242.918
442.5003,243.2841
442.9824,244.4558
443.4645,246.5864
443.9466,249.6915
444.4287,253.8264
444.9109,259.102
445.393,265.2443
445.8751,271.6587
446.3572,278.1108
446.8393,285.1546
447.3214,294.0812
447.8036,302.8259
448.2857,310.0974
448.7678,315.4504
449.2499,318.6597
449.732,319.5189
450.2141,318.046
450.6963,313.814
451.1784,305.1758
451.6605,295.4119
452.1426,284.7718
452.6247,273.6402
453.1068,262.3217
453.589,250.9597
454.0711,239.7734
454.5532,229.2343
455.0353,219.1832
455.5174,210.2302
455.9995,203.2262
456.4817,196.7858
456.9638,190.4361
457.4459,184.1004
457.928,177.8581
458.4101,171.5668
458.8922,165.4039
459.3744,160.0456
459.8565,155.6633
460.3386,151.5334
460.8207,147.3895
461.3028,143.2779
461.7849,139.2982
462.2671,135.4447
462.7492,131.7943
463.2313,128.369
463.7134,125.2012
464.1955,122.3385
464.6776,119.8298
465.1598,117.5364
465.6419,115.2769
466.124,113.0878
466.6061,111.2682
467.0882,110.035
467.5703,109.0373
468.0525,108.0074
468.5346,106.9951
469.0167,106.2127
469.4988,105.7924
469.9809,105.5731
470.463,105.1726
470.9452,104.4993
471.4273,103.8002
471.9094,103.0161
472.3915,102.2535
472.8736,101.6588
473.3557,101.1996
473.8379,100.6843
474.32,99.9546
474.8021,99.01542
475.2842,97.97604
475.7663,96.37502
476.2484,95.27924
476.7306,95.07136
477.2127,95.33561
477.6948,95.62404
478.1769,95.80681
478.659,96.09727
479.1411,96.84768
479.6233,98.11791
480.1054,99.16788
480.5875,99.67498
481.0696,100.3079
481.5517,101.3095
482.0338,102.6749
482.5159,104.4217
482.998,106.6682
483.4802,109.1329
483.9623,111.3456
484.4444,113.3051
484.9265,115.5434
485.4086,118.4992
485.8907,121.5312
486.3729,123.6445
486.855,124.7895
487.3371,126.3938
487.8192,129.2254
488.3013,132.6241
488.7834,135.8724
489.2656,138.9233
489.7477,141.9329
490.2298,144.9698
490.7119,148.0848
491.194,151.4388
491.6761,155.0832
492.1583,158.8643
492.6404,162.9219
493.1225,167.0367
493.6046,170.7981
494.0867,174.1938
494.5688,177.7969
495.051,182.2666
495.5331,187.6833
496.0152,192.7496
496.4973,196.9562
496.9794,201.3527
497.4615,206.6467
497.9437,212.1201
498.4258,216.7253
498.9079,220.0703
499.39,222.7639
499.8721,225.8012
500.3542,229.2992
500.8364,232.1126
501.3185,234.0489
501.8006,235.2859
502.2827,235.9497
502.7648,236.0555
503.2469,235.6179
503.7291,234.4657
504.2112,232.9542
504.6933,231.5398
505.1754,230.2231
505.6575,228.9177
506.1396,227.5834
506.6218,226.2606
507.1039,225.0492
507.586,223.9774
508.0681,222.748
508.5502,221.6075
509.0323,220.0581
509.5145,217.6447
509.9966,214.3436
510.4787,210.2585
510.9608,205.4167
511.4429,199.8895
511.925,194.0269
512.4072,187.8628
512.8893,181.3412
513.3714,174.1627
513.8535,166.8163
514.3356,159.5218
514.8177,152.4527
515.2999,145.8523
515.782,139.9789
516.2641,134.8353
516.7462,130.2022
517.2283,126.2476
517.7104,122.6448
518.1926,119.1973
518.6747,116.0787
519.1568,113.5547
519.6389,111.6836
520.121,110.0526
520.6031,108.2873
521.0853,106.415
521.5674,104.6597
522.0495,103.1557
522.5316,101.4916
523.0137,99.32875
523.4958,96.80627
523.978,94.15987
524.4601,91.28297
524.9422,88.47621
525.4243,85.92337
525.9064,83.58971
526.3885,81.44119
526.8707,79.46665
527.3528,77.62234
527.8349,75.88476
528.317,74.2613
528.7991,72.64283
529.2813,70.92921
529.7634,69.32997
530.2455,67.84933
530.7276,66.56384
531.2097,65.58767
531.6918,64.9642
532.174,64.63361
532.6561,64.58501
533.1382,65.03375
533.6203,65.02487
534.1024,63.89425
534.5845,62.94279
535.0667,62.67061
535.5488,62.929
536.0309,63.42108
536.513,64.08127
536.9951,64.71284
537.4772,64.91784
537.9594,64.68186
538.4415,64.7068
538.9236,65.183
539.4057,65.92246
539.8878,66.83649
540.3699,67.88448
540.8521,68.85509
541.3342,69.52205
541.8163,70.22154
542.2984,71.23817
542.7805,72.54336
543.2626,74.00317
543.7448,75.55594
544.2269,77.26588
544.709,79.23677
545.1911,81.51098
545.6732,84.01767
546.1553,86.82772
546.6375,89.79671
547.1196,92.80856
547.6017,95.93526
548.0838,99.33868
548.5659,103.143
549.048,107.1448
549.5302,110.8769
550.0123,114.13
550.4944,117.6872
550.9765,122.2403
551.4586,126.5997
551.9407,130.0653
552.4229,132.8144
552.905,135.4151
553.3871,137.8931
553.8692,140.6548
554.3513,144.4551
554.8334,149.2765
555.3156,154.227
555.7977,158.9583
556.2798,163.8392
556.7619,169.368
557.244,175.5086
557.7261,182.0245
558.2083,188.5324
558.6904,195.716
559.1725,204.2639
559.6546,213.9717
560.1367,224.222
560.6188,234.625
561.101,245.6322
561.5831,258.0392
562.0652,272.8134
562.5473,286.953
563.0294,301.0926
563.5115,314.0701
563.9937,326.1498
564.4758,336.5133
564.9579,344.0228
565.44,348.2845
565.9221,348.538
566.4042,342.9366
566.8864,331.0979
567.3685,316.352
567.8506,297.969
568.3327,278.2668
568.8148,258.0605
569.2969,237.822
569.7791,219.1555
570.2612,202.4682
570.7433,187.7747
571.2254,175.2979
571.7075,164.868
572.1896,156.0085
572.6718,148.5298
573.1539,142.5163
573.636,138.2369
574.1181,136.0693
574.6002,133.8145
575.0823,130.8392
575.5645,128.4538
576.0466,127.2788
576.5287,127.0546
577.0108,127.3902
577.4929,128.1196
577.975,129.1515
578.4572,130.2982
578.9393,131.4864
579.4214,133.2491
579.9035,135.8436
580.3856,138.7231
580.8677,141.522
581.3499,144.4389
581.832,147.855
582.3141,152.0058
582.7962,156.1961
583.2783,159.6615
583.7604,162.6438
584.2426,165.8652
584.7247,169.4294
585.2068,173.311
585.6889,177.6666
586.171,182.3481
586.6531,186.2934
587.1352,189.0714
587.6173,191.6571
588.0994,194.1371
588.5815,196.6602
589.0637,199.4806
589.5458,202.5927
590.0279,205.6817
590.51,208.3679
590.9921,210.731
591.4742,213.6472
591.9564,217.201
592.4385,221.2302
592.9206,225.9102
593.4027,230.8795
593.8848,235.8208
594.3669,240.7294
594.8491,245.6606
595.3312,250.8735
595.8133,256.1046
596.2954,260.8568
596.7775,265.1309
597.2596,269.0423
597.7418,272.9349
598.2239,276.1807
598.706,277.3552
599.1881,276.3611
599.6702,274.3502
600.1523,271.3868
600.6345,267.5461
601.1166,262.8616
601.5987,257.346
602.0808,250.9102
602.5629,243.4334
603.045,235.3463
603.5272,227.4345
604.0093,219.6974
604.4914,212.1156
604.9735,204.4288
605.4556,197.0854
605.9377,190.2583
606.4199,183.9601
606.902,178.1608
607.3841,172.8588
607.8662,168.028
608.3483,163.7209
608.8304,159.8631
609.3126,156.0534
609.7947,152.1953
610.2768,148.4989
610.7589,145.1767
611.241,142.224
611.7231,139.3998
612.2053,136.7615
612.6874,134.1782
613.1695,131.9122
613.6516,129.5322
614.1337,126.4838
614.6158,122.7314
615.098,118.6488
615.5801,114.4893
616.0622,110.3111
616.5443,106.3353
617.0264,102.4961
617.5085,99.04167
617.9907,96.30789
618.4728,93.77867
618.9549,91.09615
619.437,88.23257
619.9191,85.26282
620.4012,82.01109
620.8834,78.78312
621.3655,75.97781
621.8476,73.59081
622.3297,71.60324
622.8118,70.05141
623.2939,68.74348
623.7761,67.39751
624.2582,66.0055
624.7403,64.63696
625.2224,63.2063
625.7045,61.87983
626.1866,60.78466
626.6688,59.82972
627.1509,58.86338
627.633,57.83783
628.1151,56.85013
628.5972,56.01994
629.0793,55.34857
629.5615,54.82488
630.0436,54.55965
630.5257,54.2246
631.0078,53.56876
631.4899,52.78946
631.972,52.10587
632.4542,51.54327
632.9363,51.07279
633.4184,50.81593
633.9005,50.57035
634.3826,50.00999
634.8647,49.16611
635.3469,48.35685
