Raman Shift,Intensity
103.124,2956.0
104.516,3018.0
105.908,3067.0
107.3,3099.0
108.691,3119.0
110.082,3215.0
111.473,3209.0
112.864,3262.561
114.254,3285.0
115.644,3330.0
117.034,3355.0
118.424,3379.0
119.813,3304.0
121.203,3431.0
122.592,3414.0
123.981,3488.0
125.369,3401.0
126.758,3403.0
128.146,3480.0
129.534,3490.0
130.922,3556.0
132.309,3515.0
133.696,3615.0
135.083,3590.0
136.47,3675.0
137.857,3664.0
139.243,3742.0
140.63,3764.0
142.016,3766.0
143.401,3791.0
144.787,3783.0
146.172,3784.0
147.557,3808.0
148.942,3820.0
150.327,3836.0
151.711,3925.0
153.096,3945.0
154.48,3989.0
155.863,4001.0
157.247,4064.0
158.63,4154.0
160.013,4213.0
161.396,4413.0
162.779,4524.0
164.161,4767.0
165.544,5089.0
166.926,5343.0
168.308,5590.0
169.689,5794.0
171.07,5888.0
172.452,5857.0
173.833,5616.0
175.213,5245.0
176.594,4972.0
177.974,4630.0
179.354,4529.0
180.734,4407.0
182.114,4246.0
183.493,4165.0
184.872,4180.0
186.251,4102.0
187.63,4046.0
189.008,3986.0
190.387,3974.29
191.765,4021.0
193.143,3982.0
194.52,4012.0
195.898,4036.0
197.275,4006.0
198.652,4054.0
200.029,4044.0
201.405,4020.0
202.782,4050.0
204.158,4069.0
205.534,4078.0
206.909,4080.0
208.285,4062.0
209.66,4066.74
211.035,4015.0
212.41,4061.0
213.784,4083.0
215.159,4090.0
216.533,4027.0
217.907,4093.0
219.281,4068.0
220.654,4136.0
222.027,4082.0
223.4,4134.0
224.773,4134.0
226.146,4115.0
227.518,4150.0
228.891,4164.0
230.263,4141.0
231.634,4184.0
233.006,4226.0
234.377,4151.0
235.748,4226.0
237.119,4183.0
238.49,4158.0
239.86,4266.0
241.231,4269.0
242.601,4233.0
243.97,4260.0
245.34,4347.0
246.709,4311.0
248.079,4242.0
249.448,4358.0
250.816,4304.0
252.185,4388.0
253.553,4374.0
254.921,4389.0
256.289,4427.0
257.657,4420.0
259.024,4537.0
260.391,4454.0
261.758,4547.0
263.125,4509.0
264.492,4564.0
265.858,4668.0
267.224,4679.0
268.59,4751.0
269.956,4750.0
271.321,4850.0
272.687,4898.0
274.052,4949.0
275.416,4997.0
276.781,5196.0
278.146,5224.0
279.51,5293.0
280.874,5499.0
282.237,5562.0
283.601,5724.0
284.964,5799.0
286.327,5894.0
287.69,6099.0
289.053,6144.0
290.416,6184.0
291.778,6346.0
293.14,6278.0
294.502,6261.0
295.863,6059.0
297.225,6090.0
298.586,5785.0
299.947,5625.0
301.308,5562.0
302.668,5393.0
304.029,5251.0
305.389,5219.0
306.749,5095.0
308.108,5075.0
309.468,5071.0
310.827,4990.0
312.186,4937.0
313.545,4957.0
314.903,4915.0
316.262,4970.0
317.62,4858.0
318.978,4940.0
320.336,4916.0
321.693,4886.0
323.051,4911.0
324.408,4912.0
325.765,4950.0
327.121,4939.0
328.478,4909.0
329.834,4921.0
331.19,4931.996
332.546,4992.0
333.902,4960.0
335.257,5042.0
336.612,5012.0
337.967,5087.0
339.322,5104.0
340.677,5015.0
342.031,5077.0
343.385,4982.0
344.739,5014.0
346.093,5022.0
347.446,5037.0
348.799,5051.595
350.153,5040.0
351.505,5056.0
352.858,5010.0
354.21,4974.0
355.563,5070.0
356.915,5040.0
358.267,4995.0
359.618,5087.0
360.969,5062.0
362.321,5048.0
363.672,5113.0
365.022,5124.0
366.373,5162.0
367.723,5056.0
369.073,5137.0
370.423,5048.0
371.773,5163.0
373.122,5066.0
374.471,5181.0
375.821,5232.0
377.169,5114.0
378.518,5235.0
379.866,5159.0
381.215,5177.0
382.563,5289.0
383.91,5231.0
385.258,5211.0
386.605,5219.0
387.952,5217.0
389.299,5248.0
390.646,5241.97
391.992,5257.0
393.339,5252.0
394.685,5296.0
396.031,5316.0
397.376,5410.0
398.722,5340.0
400.067,5374.0
401.412,5283.0
402.757,5378.0
404.101,5419.0
405.446,5382.0
406.79,5340.0
408.134,5467.0
409.478,5418.0
410.821,5409.0
412.165,5390.0
413.508,5387.0
414.851,5479.0
416.193,5530.0
417.536,5467.0
418.878,5509.0
420.22,5475.0
421.562,5455.0
422.904,5473.0
424.245,5520.0
425.586,5591.0
426.927,5547.0
428.268,5594.0
429.609,5558.0
430.949,5492.0
432.289,5580.0
433.629,5572.0
434.969,5570.0
436.309,5602.0
437.648,5632.0
438.987,5616.0
440.326,5661.0
441.665,5654.0
443.003,5568.0
444.342,5678.0
445.68,5597.0
447.018,5675.0
448.355,5656.0
449.693,5668.0
451.03,5745.0
452.367,5659.0
453.704,5779.0
455.041,5717.0
456.377,5788.0
457.713,5750.0
459.049,5728.0
460.385,5797.0
461.721,5786.0
463.056,5890.0
464.391,5830.0
465.726,5806.0
467.061,5875.0
468.395,5796.0
469.73,5877.0
471.064,5978.0
472.398,5865.0
473.731,5938.0
475.065,5818.0
476.398,5925.0
477.731,5978.0
479.064,6049.0
480.397,5993.0
481.729,6003.0
483.062,6020.0
484.394,5952.0
485.725,6022.0
487.057,5998.0
488.389,5996.0
489.72,6104.0
491.051,5987.0
492.382,6068.0
493.712,6054.0
495.043,6114.0
496.373,6113.0
497.703,6130.0
499.032,6144.0
500.362,6156.0
501.691,6076.0
503.02,6185.0
504.349,6095.0
505.678,6184.0
507.007,6209.0
508.335,6177.0
509.663,6266.0
510.991,6180.0
512.319,6246.0
513.646,6296.0
514.973,6261.0
516.3,6304.0
517.627,6368.0
518.954,6378.0
520.28,6400.241
521.607,6405.0
522.933,6404.0
524.259,6397.0
525.584,6389.0
526.91,6374.0
528.235,6387.0
529.56,6374.924
530.885,6448.0
532.209,6393.0
533.534,6407.0
534.858,6472.0
536.182,6552.0
537.506,6438.0
538.829,6543.0
540.152,6532.0
541.476,6484.0
542.799,6516.0
544.121,6500.0
545.444,6579.0
546.766,6538.0
548.088,6580.0
549.41,6616.0
550.732,6581.0
552.053,6689.0
553.375,6625.0
554.696,6599.0
556.017,6662.0
557.337,6670.0
558.658,6771.0
559.978,6757.042
561.298,6675.0
562.618,6757.0
563.938,6748.0
565.257,6750.0
566.576,6853.0
567.895,6736.0
569.214,6819.0
570.533,6784.0
571.851,6746.0
573.17,6737.0
574.488,6858.0
575.805,6818.0
577.123,6824.0
578.44,6850.0
579.758,6833.0
581.075,6946.0
582.391,6827.0
583.708,7022.0
585.024,6848.0
586.341,6883.0
587.657,6993.0
588.972,7088.0
590.288,6925.0
591.603,6997.0
592.918,6966.0
594.233,7034.0
595.548,7043.0
596.863,7059.0
598.177,7041.0
599.491,7054.097
600.805,7143.0
602.119,7080.0
603.432,7073.0
604.746,7130.0
606.059,7095.0
607.372,7089.0
608.685,7068.0
609.997,7072.19
611.309,7137.0
612.621,7113.0
613.933,7209.0
615.245,7283.0
616.557,7256.0
617.868,7296.0
619.179,7212.0
620.49,7292.0
621.801,7232.0
623.111,7362.0
624.421,7287.0
625.731,7422.0
627.041,7227.0
628.351,7341.0
629.66,7375.0
630.97,7299.0
632.279,7392.0
633.588,7475.0
634.896,7330.0
636.205,7395.0
637.513,7395.0
638.821,7388.0
640.129,7500.0
641.437,7427.0
642.744,7530.0
644.051,7444.0
645.358,7466.0
646.665,7459.0
647.972,7460.028
649.278,7482.0
650.584,7558.0
651.89,7516.0
653.196,7668.0
654.502,7540.0
655.807,7617.0
657.113,7522.0
658.418,7676.0
659.722,7799.0
661.027,7699.0
662.331,7556.0
663.636,7673.0
664.94,7762.0
666.244,7651.0
667.547,7768.0
668.851,7709.0
670.154,7775.0
671.457,7785.0
672.76,7810.0
674.062,7799.0
675.365,7798.0
676.667,7745.0
677.969,7855.0
679.271,7830.0
680.572,7877.0
681.874,7826.0
683.175,7963.0
684.476,7941.0
685.777,8017.0
687.077,7966.0
688.378,7978.0
689.678,8062.0
690.978,8049.0
692.278,7968.0
693.577,7956.0
694.877,8000.194
696.176,8001.0
697.475,8114.0
698.774,8139.0
700.072,8167.0
701.371,8200.0
702.669,8252.0
703.967,8200.0
705.265,8339.0
706.562,8499.0
707.86,8433.0
709.157,8475.0
710.454,8646.0
711.751,8619.0
713.047,8884.0
714.344,8931.0
715.64,9229.0
716.936,9324.0
718.232,9592.0
719.527,9909.0
720.823,10025.0
722.118,10021.0
723.413,10113.0
724.708,9921.0
726.002,9662.0
727.297,9500.0
728.591,9256.0
729.885,9083.0
731.179,9100.0
732.472,8801.0
733.766,8662.0
735.059,8611.0
736.352,8706.0
737.645,8589.0
738.937,8651.0
740.23,8618.0
741.522,8612.0
742.814,8601.0
744.106,8565.0
745.397,8608.0
746.689,8580.0
747.98,8531.0
749.271,8649.0
750.562,8545.0
751.853,8675.0
753.143,8609.0
754.433,8672.0
755.723,8615.0
757.013,8587.0
758.303,8627.597
759.592,8676.0
760.881,8699.0
762.17,8673.0
763.459,8756.0
764.748,8642.0
766.036,8670.0
767.325,8805.0
768.613,8743.0
769.901,8841.0
771.188,8860.0
772.476,8730.0
773.763,8849.0
775.05,8722.0
776.337,8916.0
777.624,8782.0
778.91,8889.0
780.196,8930.0
781.482,8902.0
782.768,8954.0
784.054,8894.0
785.339,9035.0
786.625,9003.0
787.91,8990.0
789.195,9092.0
790.479,9058.0
791.764,9054.0
793.048,9053.0
794.332,9020.0
795.616,9066.0
796.9,9155.0
798.183,9168.0
799.467,9034.0
800.75,9134.0
802.033,9189.0
803.316,9183.0
804.598,9280.0
805.88,9256.138
807.163,9263.0
808.445,9211.0
809.726,9244.0
811.008,9164.0
812.289,9251.0
813.57,9248.0
814.851,9346.0
816.132,9352.0
817.413,9372.289
818.693,9404.0
819.973,9387.0
821.253,9353.0
822.533,9345.0
823.813,9448.0
825.092,9448.0
826.371,9547.0
827.65,9418.0
828.929,9323.0
830.208,9556.0
831.486,9646.0
832.764,9396.0
834.042,9508.0
835.32,9586.0
836.598,9539.0
837.875,9609.0
839.152,9577.0
840.429,9512.0
841.706,9694.0
842.983,9635.0
844.259,9753.0
845.536,9801.0
846.812,9655.0
848.088,9699.0
849.363,9640.0
850.639,9657.016
851.914,9678.808
853.189,9732.0
854.464,9761.0
855.739,9792.0
857.013,9899.0
858.288,9773.0
859.562,9821.0
860.836,9904.0
862.11,9971.0
863.383,9827.0
864.656,10020.0
865.93,9859.0
867.203,9990.0
868.475,10017.0
869.748,10009.0
871.02,9985.0
872.292,10032.0
873.564,10080.0
874.836,10102.0
876.108,10082.0
877.379,10091.0
878.65,10111.762
879.922,10226.0
881.192,10183.0
882.463,10180.0
883.733,10269.0
885.004,10124.0
886.274,10185.0
887.544,10248.0
888.813,10304.0
890.083,10335.568
891.352,10352.0
892.621,10371.0
893.89,10282.0
895.159,10256.0
896.427,10298.0
897.695,10302.0
898.964,10323.061
900.232,10364.0
901.499,10357.0
902.767,10420.0
904.034,10397.0
905.301,10390.0
906.568,10515.0
907.835,10559.0
909.102,10531.0
910.368,10472.0
911.634,10562.0
912.9,10598.0
914.166,10437.0
915.432,10646.0
916.697,10630.0
917.962,10564.0
919.227,10647.0
920.492,10639.0
921.757,10664.0
923.021,10645.0
924.285,10785.0
925.55,10755.0
926.813,10796.0
928.077,10794.0
929.341,10727.0
930.604,10768.0
931.867,10790.0
933.13,10731.0
934.393,10791.0
935.655,11024.0
936.918,10833.0
938.18,10973.0
939.442,10804.0
940.703,10866.0
941.965,10909.0
943.226,10906.0
944.488,10842.0
945.749,10934.0
947.009,11096.0
948.27,11019.0
949.53,11048.0
950.791,11080.0
952.051,11051.0
953.311,11085.0
954.57,10974.0
955.83,11063.0
957.089,11035.0
958.348,11058.0
959.607,11104.0
960.866,11129.0
962.124,11126.0
963.383,11177.0
964.641,11177.077
965.899,11185.0
967.156,11211.0
968.414,11222.0
969.671,11264.0
970.928,11258.0
972.185,11283.924
973.442,11321.0
974.699,11315.0
975.955,11348.0
977.211,11361.0
978.468,11400.0
979.723,11450.0
980.979,11399.0
982.234,11293.0
983.49,11616.0
984.745,11360.0
986.0,11549.0
987.254,11589.0
988.509,11478.0
989.763,11723.0
991.017,11666.0
992.271,11633.0
993.525,11590.0
994.779,11627.0
996.032,11611.0
997.285,11604.0
998.538,11831.0
999.791,11540.0
1001.044,11820.0
1002.296,11640.0
1003.548,11753.0
1004.8,11819.0
1006.052,11830.0
1007.304,11875.0
1008.555,11792.0
1009.807,11831.0
1011.058,11843.0
1012.309,11904.0
1013.559,11992.0
1014.81,11916.0
1016.06,11902.0
1017.31,12006.0
1018.56,12067.0
1019.81,11982.0
1021.06,12133.0
1022.309,12146.0
1023.558,12094.0
1024.807,12157.0
1026.056,12217.0
1027.305,12190.0
1028.553,12191.0
1029.801,12373.0
1031.049,12462.0
1032.297,12306.0
1033.545,12323.0
1034.793,12497.0
1036.04,12388.0
1037.287,12426.0
1038.534,12514.0
1039.781,12617.0
1041.027,12641.0
1042.274,12675.035
1043.52,12649.0
1044.766,12697.0
1046.012,12681.0
1047.257,12733.0
1048.503,12745.0
1049.748,12852.0
1050.993,12869.0
1052.238,12941.0
1053.483,12929.0
1054.727,12912.0
1055.971,12963.0
1057.216,13009.875
1058.459,13142.0
1059.703,13196.0
1060.947,13184.0
1062.19,13332.0
1063.433,13348.0
1064.676,13484.0
1065.919,13590.0
1067.162,13643.0
1068.404,13853.0
1069.646,13885.0
1070.888,14130.0
1072.13,14377.0
1073.372,14421.0
1074.613,14658.0
1075.855,14872.0
1077.096,15088.0
1078.337,15240.0
1079.578,15750.0
1080.818,16237.0
1082.059,16878.0
1083.299,17828.0
1084.539,19314.0
1085.779,21168.0
1087.018,23778.0
1088.258,27448.0
1089.497,32995.0
1090.736,40947.0
1091.975,49754.0
1093.213,57571.0
1094.452,60768.0
1095.69,58532.0
1096.928,50563.0
1098.166,41112.0
1099.404,32597.0
1100.642,26264.0
1101.879,21744.0
1103.116,19096.0
1104.353,17295.0
1105.59,16284.0
1106.827,15248.0
1108.063,14849.0
1109.299,14461.0
1110.536,14329.0
1111.771,14128.0
1113.007,13797.0
1114.243,13777.0
1115.478,13710.0
1116.713,13705.0
1117.948,13534.0
1119.183,13640.0
1120.418,13491.0
1121.652,13576.0
1122.886,13595.0
1124.12,13489.0
1125.354,13490.0
1126.588,13506.0
1127.821,13485.0
1129.055,13382.0
1130.288,13478.0
1131.521,13536.0
1132.753,13507.0
1133.986,13342.0
1135.218,13350.0
1136.45,13421.0
1137.682,13297.0
1138.914,13616.0
1140.146,13495.0
1141.377,13397.0
1142.609,13488.0
1143.84,13384.0
1145.071,13429.0
1146.301,13499.0
1147.532,13544.0
1148.762,13487.0
1149.992,13569.0
1151.222,13464.0
1152.452,13579.0
1153.682,13653.0
1154.911,13563.0
1156.14,13629.0
1157.369,13611.0
1158.598,13682.0
1159.827,13663.0
1161.055,13689.0
1162.284,13656.0
1163.512,13730.0
1164.74,13735.0
1165.967,13709.0
1167.195,13641.0
1168.422,13850.0
1169.65,13863.0
1170.877,13801.0
1172.103,13739.0
1173.33,13816.0
1174.557,13798.0
1175.783,13991.0
1177.009,13905.0
1178.235,13720.0
1179.461,13998.0
1180.686,13884.0
1181.912,13853.0
1183.137,14102.0
1184.362,14118.0
1185.587,14085.0
1186.811,14136.0
1188.036,14097.0
1189.26,14030.0
1190.484,14121.0
1191.708,14096.0
1192.932,14205.0
1194.155,14110.0
1195.378,14111.0
1196.602,14228.0
1197.825,14251.0
1199.047,14116.0
1200.27,14272.0
1201.492,14278.0
1202.715,14420.0
1203.937,14473.276
1205.159,14363.0
1206.38,14469.0
1207.602,14546.0
1208.823,14281.0
1210.044,14348.0
1211.265,14461.0
1212.486,14486.0
1213.707,14395.0
1214.927,14430.0
1216.147,14497.0
1217.367,14481.0
1218.587,14508.0
1219.807,14608.0
1221.027,14541.0
1222.246,14602.0
1223.465,14498.0
1224.684,14503.0
1225.903,14810.0
1227.121,14636.0
1228.34,14651.0
1229.558,14836.0
1230.776,14645.0
1231.994,14747.0
1233.212,14753.0
1234.429,14743.0
1235.646,14748.0
1236.864,14817.0
1238.081,14881.0
1239.297,14706.0
1240.514,14930.0
1241.73,15026.0
1242.947,14836.0
1244.163,15041.0
1245.378,14972.0
1246.594,15011.0
1247.81,14955.0
1249.025,14913.0
1250.24,15056.0
1251.455,14980.0
1252.67,14933.0
1253.885,15099.0
1255.099,15099.0
1256.313,15094.0
1257.527,15004.0
1258.741,15194.0
1259.955,15198.0
1261.168,14985.0
1262.382,15106.0
1263.595,15135.0
1264.808,15280.0
1266.021,15345.0
1267.233,15367.0
1268.446,15230.0
1269.658,15360.0
1270.87,15176.0
1272.082,15287.0
1273.294,15308.0
1274.505,15227.0
1275.716,15451.0
1276.928,15389.0
1278.139,15389.0
1279.349,15512.0
1280.56,15435.0
1281.77,15508.0
1282.981,15464.0
1284.191,15472.0
1285.401,15603.0
1286.61,15483.0
1287.82,15498.0
1289.029,15571.0
1290.239,15529.0
1291.448,15571.536
1292.656,15614.0
1293.865,15611.0
1295.073,15685.0
1296.282,15728.0
1297.49,15766.065
1298.698,15803.616
1299.906,15838.0
1301.113,15842.0
1302.32,15824.0
1303.528,15816.0
1304.735,15853.0
1305.942,15702.0
1307.148,15778.0
1308.355,15987.0
1309.561,15865.0
1310.767,16059.0
1311.973,16058.0
1313.179,15934.0
1314.384,15834.0
1315.59,15888.662
1316.795,15890.086
1318.0,16010.0
1319.205,16030.0
1320.41,16155.0
1321.614,16188.0
1322.819,16140.0
1324.023,16289.0
1325.227,16246.0
1326.431,16336.0
1327.634,16292.0
1328.838,16309.398
1330.041,16300.0
1331.244,16356.0
1332.447,16318.0
1333.65,16425.0
1334.852,16409.0
1336.055,16544.0
1337.257,16480.0
1338.459,16573.0
1339.661,16580.0
1340.862,16610.0
1342.064,16533.0
1343.265,16593.0
1344.466,16621.0
1345.667,16741.0
1346.868,16737.0
1348.068,16875.0
1349.269,16755.0
1350.469,16702.0
1351.669,16920.0
1352.869,16925.0
1354.069,16920.0
1355.268,16948.0
1356.468,16896.0
1357.667,16973.0
1358.866,17132.0
1360.065,16964.0
1361.263,17118.0
1362.462,17035.0
1363.66,17001.0
1364.858,17196.0
1366.056,17225.0
1367.254,17161.0
1368.451,17168.0
1369.649,17314.0
1370.846,17148.0
1372.043,17338.0
1373.24,17388.0
1374.436,17364.0
1375.633,17326.0
1376.829,17326.0
1378.025,17323.0
1379.221,17282.0
1380.417,17347.07
1381.613,17371.777
1382.808,17469.0
1384.003,17492.0
1385.199,17560.0
1386.393,17623.0
1387.588,17510.0
1388.783,17593.0
1389.977,17624.0
1391.171,17734.0
1392.365,17729.416
1393.559,17742.0
1394.753,17735.525
1395.946,17820.0
1397.14,17831.0
1398.333,17843.0
1399.526,17870.0
1400.719,17827.0
1401.911,17981.0
1403.104,17934.0
1404.296,18003.0
1405.488,17952.0
1406.68,18037.0
1407.872,18054.0
1409.063,18014.0
1410.255,18302.0
1411.446,18113.0
1412.637,18192.0
1413.828,18043.0
1415.018,18242.0
1416.209,18308.0
1417.399,18408.0
1418.589,18271.0
1419.779,18614.0
1420.969,18353.0
1422.159,18551.0
1423.348,18492.0
1424.537,18614.0
1425.726,18587.0
1426.915,18648.0
1428.104,18694.0
1429.293,18762.0
1430.481,18746.0
1431.669,18914.0
1432.857,19009.0
1434.045,18952.0
1435.233,18900.0
1436.42,19288.0
1437.608,19443.0
1438.795,19295.0
1439.982,19386.0
1441.169,19398.0
1442.355,19603.0
1443.542,19392.0
1444.728,19505.0
1445.914,19371.0
1447.1,19440.0
1448.286,19559.0
1449.472,19405.0
1450.657,19333.0
1451.842,19520.0
1453.027,19333.0
1454.212,19386.0
1455.397,19525.0
1456.581,19304.0
1457.766,19384.0
1458.95,19506.0
1460.134,19395.0
1461.318,19474.0
1462.501,19346.0
1463.685,19466.0
1464.868,19552.0
1466.051,19444.0
1467.234,19779.0
1468.417,19488.0
1469.6,19550.0
1470.782,19569.0
1471.965,19674.0
1473.147,19532.0
1474.329,19785.0
1475.51,19872.0
1476.692,19566.0
1477.873,19656.0
1479.055,19853.0
1480.236,19652.0
1481.416,19888.0
1482.597,19643.0
1483.778,19752.0
1484.958,19844.0
1486.138,19721.0
1487.318,19784.0
1488.498,20170.0
1489.678,19884.0
1490.857,19948.0
1492.037,19762.0
1493.216,20052.0
1494.395,20115.0
1495.574,19937.0
1496.752,20186.0
1497.931,19780.0
1499.109,20146.0
1500.287,19861.0
1501.465,20042.0
1502.643,19873.0
1503.82,19978.0
1504.998,20152.0
1506.175,19977.0
1507.352,20003.0
1508.529,20058.0
1509.706,20111.0
1510.882,20040.0
1512.059,20237.0
1513.235,20321.0
1514.411,20294.0
1515.587,20128.0
1516.762,20480.0
1517.938,20404.0
1519.113,20313.0
1520.288,20512.0
1521.463,20514.0
1522.638,20513.0
