Wavenumber (cm⁻¹),Intensity
200.0,64.25534556316114
201.00097751710655,62.04903901329776
202.0019550342131,63.44798451158107
203.00293255131965,65.51936334186757
204.0039100684262,66.49867981068083
205.00488758553274,66.65753474900156
206.0058651026393,68.41251471874939
207.00684261974584,70.67892526904629
208.0078201368524,73.52597970437249
209.00879765395894,76.95209331984154
210.00977517106548,80.46925008494928
211.01075268817203,83.51256392304721
212.01173020527858,86.31868409369802
213.01270772238513,90.31948521195454
214.01368523949168,96.43311028959803
215.01466275659823,99.24069946211613
216.01564027370478,105.8453874750271
217.01661779081132,113.10207260727798
218.01759530791787,118.71911634965787
219.01857282502445,125.37276647799641
220.019550342131,131.91683893991404
221.02052785923755,140.6490011186398
222.0215053763441,149.73821548422796
223.02248289345064,155.84619961246045
224.0234604105572,160.00953855450342
225.02443792766374,161.76897863211678
226.0254154447703,160.20825869086914
227.02639296187684,154.11799664097865
228.02737047898339,142.24918728583108
229.02834799608993,130.53756285339705
230.02932551319648,121.64296764460948
231.03030303030303,116.15729601176669
232.03128054740958,112.8779738535971
233.03225806451613,107.54073555278993
234.03323558162268,104.61680414198794
235.03421309872923,102.30300067294783
236.03519061583577,99.77770597202124
237.03616813294232,99.05434437485036
238.03714565004887,96.4987271673112
239.03812316715542,94.54783578713851
240.03910068426197,92.47802168570506
241.04007820136852,88.58949103525781
242.04105571847506,83.3469331862639
243.0420332355816,79.90005715665396
244.0430107526882,76.32702999730114
245.04398826979474,71.88334824041442
246.0449657869013,68.48633421137727
247.04594330400784,67.25021753728542
248.04692082111438,65.63009408929405
249.04789833822093,62.79595892657831
250.04887585532748,60.35434374621823
251.04985337243403,62.60280352816769
252.05083088954058,61.54886441558727
253.05180840664713,58.993339761641494
254.05278592375367,56.63763573854854
255.05376344086022,54.88056430805637
256.05474095796677,54.24290654191262
257.0557184750733,54.66972368256911
258.05669599217987,55.014227391051236
259.0576735092864,54.87512424284802
260.05865102639297,55.42291280157497
261.0596285434995,55.44824901002518
262.06060606060606,54.58429748650161
263.0615835777126,53.90345073691529
264.06256109481916,54.47205055815191
265.0635386119257,55.076603185821725
266.06451612903226,55.28542048878897
267.0654936461388,54.92281577147021
268.06647116324535,53.75548400275917
269.0674486803519,52.13243852758672
270.06842619745845,54.80314973181732
271.069403714565,56.7526868575025
272.07038123167155,56.41755172614191
273.0713587487781,55.22162843924657
274.07233626588464,55.47858263913802
275.0733137829912,55.48808693906972
276.07429130009774,56.015142195079314
277.0752688172043,57.28173823977978
278.07624633431084,58.63422973762756
279.0772238514174,58.736764770449724
280.07820136852393,61.02551512133594
281.0791788856305,62.65424855046095
282.08015640273703,62.90262748843391
283.0811339198436,65.9441320076388
284.08211143695013,70.09979004424973
285.0830889540567,74.89883275586827
286.0840664711632,79.50301679302201
287.0850439882698,83.07361607182256
288.0860215053764,85.8465680262429
289.0869990224829,91.46411735923009
290.0879765395895,98.01668441682864
291.088954056696,103.58196150401382
292.0899315738026,108.50604158510265
293.0909090909091,118.07674968603291
294.09188660801567,130.01844177544373
295.0928641251222,142.86589070831693
296.09384164222877,157.27202848334034
297.0948191593353,175.34929446795513
298.09579667644186,197.3828503376312
299.0967741935484,224.74812003131552
300.09775171065496,253.66607543617792
301.0987292277615,280.6815087398594
302.09970674486806,305.22501088353147
303.1006842619746,320.97002875165566
304.10166177908116,315.7531241728906
305.1026392961877,291.96118305963324
306.10361681329425,259.4307805347964
307.1045943304008,221.2255119258101
308.10557184750735,188.0349263756259
309.1065493646139,163.47403211467986
310.10752688172045,147.32007946261086
311.108504398827,137.57308506813726
312.10948191593354,132.470715013787
313.1104594330401,131.4597826030342
314.11143695014664,131.8052652570225
315.1124144672532,132.56418660260306
316.11339198435974,134.50966143602759
317.1143695014663,130.78493029627825
318.11534701857283,123.9926915200338
319.1163245356794,116.21652366226026
320.11730205278593,108.4295911741822
321.1182795698925,101.06000951937428
322.119257086999,99.58892245803884
323.1202346041056,96.4067695979648
324.1212121212121,94.30831773409257
325.1221896383187,97.6136529981368
326.1231671554252,95.35987080077317
327.12414467253177,93.06387484620785
328.1251221896383,89.66655592413089
329.12609970674487,85.18078238732559
330.1270772238514,81.2644416894967
331.12805474095796,78.28381457715444
332.1290322580645,71.69635361255523
333.13000977517106,67.66055328424662
334.1309872922776,67.24849355216458
335.13196480938416,64.55202568672247
336.1329423264907,64.54389578849903
337.13391984359725,62.841275719884266
338.1348973607038,61.44710864949349
339.13587487781035,61.526826911713016
340.1368523949169,59.56981441098616
341.13782991202345,59.37977020398902
342.13880742913,57.96542860458377
343.13978494623655,55.47851576666984
344.1407624633431,53.86446568803642
345.14173998044964,54.77921047454492
346.1427174975562,54.28777354709754
347.14369501466274,53.492008948095496
348.1446725317693,52.440245168474235
349.14565004887584,52.19360896388659
350.1466275659824,56.69964932582947
351.14760508308893,55.95065703451811
352.1485826001955,55.99208232388927
353.14956011730203,57.47942046773007
354.1505376344086,57.611212952561914
355.1515151515151,61.58482826736541
356.1524926686217,62.54184172173184
357.1534701857282,62.03342678065356
358.1544477028348,62.69338314802266
359.1554252199413,64.92984395784326
360.15640273704787,65.16952268307969
361.1573802541544,66.24977833308489
362.15835777126097,68.03890083122401
363.1593352883675,69.09095474286762
364.16031280547406,68.94430909981641
365.1612903225806,71.7264953216772
366.16226783968716,74.48871399566495
367.1632453567937,78.5691364819541
368.16422287390026,84.4139186569863
369.1652003910068,90.526061791336
370.16617790811335,96.35251674185082
371.1671554252199,100.21179652345754
372.16813294232645,102.40224201273622
373.169110459433,100.83074741950907
374.17008797653955,91.03461308970886
375.1710654936461,81.32543505554217
376.1720430107527,73.90521670986928
377.17302052785925,67.815612748952
378.1739980449658,62.49579299185117
379.17497556207235,58.97888867963008
380.1759530791789,56.68655266623718
381.17693059628544,55.62578195430021
382.177908113392,55.200562861223595
383.17888563049854,54.137418142893864
384.1798631476051,51.24491534273419
385.18084066471164,50.83700323500184
386.1818181818182,49.62052263336534
387.18279569892474,49.22289621579428
388.1837732160313,49.76692084183845
389.18475073313783,47.67455958039153
390.1857282502444,48.12110599881832
391.18670576735093,46.49164351837233
392.1876832844575,46.494853505484556
393.188660801564,49.0790163888316
394.1896383186706,47.79006059272365
395.1906158357771,49.5302420292087
396.1915933528837,49.63799640926058
397.1925708699902,49.596872445956244
398.19354838709677,51.2448939291808
399.1945259042033,53.345486253132975
400.19550342130987,56.45890901727801
401.1964809384164,58.118411835882966
402.19745845552296,60.03405439584024
403.1984359726295,63.75930137263805
404.19941348973606,67.89239691867996
405.2003910068426,70.52407306483944
406.20136852394916,75.71937133346
407.2023460410557,81.69958061015438
408.20332355816225,85.4548912694461
409.20430107526886,86.56247608596352
410.2052785923754,86.04332600679196
411.20625610948196,88.2252553958317
412.2072336265885,89.56907505351198
413.20821114369505,90.324866438939
414.2091886608016,96.51249394511007
415.21016617790815,101.88843867443754
416.2111436950147,108.52390035577439
417.21212121212125,115.39467114455098
418.2130987292278,120.02914738409255
419.21407624633434,121.94682228082193
420.2150537634409,126.00804871496365
421.21603128054744,126.87904287246876
422.217008797654,124.98228379026476
423.21798631476054,124.49173480528637
424.2189638318671,129.87367896213308
425.21994134897363,137.082469898252
426.2209188660802,146.7359833487941
427.22189638318673,158.9035724238799
428.2228739002933,174.46871014707816
429.2238514173998,192.7440465156212
430.2248289345064,205.387401378115
431.2258064516129,214.40513545576832
432.2267839687195,218.1109090118318
433.227761485826,214.33543935855707
434.22873900293257,202.67823040126817
435.2297165200391,186.9166742285244
436.23069403714567,175.16264345283545
437.2316715542522,162.98241335858884
438.23264907135876,149.5762256098531
439.2336265884653,137.00132656510712
440.23460410557186,124.69210611328383
441.2355816226784,110.53934879930824
442.23655913978496,98.68979907048684
443.2375366568915,88.56422407940946
444.23851417399806,78.72213341342197
445.2394916911046,71.7043583311992
446.24046920821115,67.17759873305388
447.2414467253177,62.190722329689535
448.24242424242425,58.28728067671106
449.2434017595308,56.07145709286897
450.24437927663735,52.45580283300511
451.2453567937439,51.44401849893437
452.24633431085044,50.95902239617605
453.247311827957,49.25459775649997
454.24828934506354,46.71570806198764
455.2492668621701,46.049928279849695
456.25024437927664,47.669791566511186
457.2512218963832,46.72583699549651
458.25219941348973,45.383208501783194
459.2531769305963,44.34922575713173
460.25415444770283,42.801146036818
461.2551319648094,45.43210445572614
462.2561094819159,43.5977271431865
463.2570869990225,42.237351037173624
464.258064516129,42.35303503455982
465.2590420332356,42.09133423980455
466.2600195503421,43.00597566701048
467.26099706744867,44.38823535504189
468.2619745845552,45.449263991601185
469.26295210166177,44.60965124046966
470.2639296187683,42.686846819851574
471.26490713587486,44.00705041651233
472.2658846529814,44.97374012183284
473.26686217008796,43.89908895992673
474.2678396871945,44.64064063084617
475.26881720430106,46.19779042408674
476.2697947214076,42.758575250884896
477.27077223851416,44.23614640366361
478.2717497556207,45.75791193150162
479.27272727272725,44.260038905357305
480.2737047898338,42.741659292361504
481.27468230694035,45.12471767068276
482.2756598240469,46.45525631127502
483.27663734115345,44.06636634427254
484.27761485826,43.84039543482884
485.27859237536654,44.724062128475076
486.2795698924731,43.80957258860768
487.28054740957964,43.19579098403594
488.2815249266862,43.757321034130364
489.2825024437928,43.578533488710086
490.28347996089934,43.23321398608402
491.2844574780059,43.25080658499473
492.28543499511244,43.122173958451576
493.286412512219,43.882661891721696
494.28739002932554,43.9950048682602
495.2883675464321,44.35170134166
496.28934506353863,44.51960063527458
497.2903225806452,43.53844058950239
498.29130009775173,43.50072993894218
499.2922776148583,41.759026578911076
500.2932551319648,42.639990190652306
501.2942326490714,44.35830573485627
502.2952101661779,43.957886068294755
503.2961876832845,42.73885707029546
504.297165200391,43.070829926666946
505.29814271749757,43.2830544222886
506.2991202346041,44.272792211421084
507.30009775171067,44.935778516067806
508.3010752688172,42.20261277056251
509.30205278592376,40.59070298224228
510.3030303030303,42.30187675931688
511.30400782013686,42.806851034150654
512.3049853372434,42.578636460895275
513.3059628543499,43.7959535026256
514.3069403714564,43.3082304908977
515.307917888563,44.73266456755963
516.3088954056695,44.112965880589776
517.3098729227761,43.3651503569295
518.3108504398826,43.7845180878014
519.3118279569892,43.216701991667286
520.3128054740957,43.485933191558864
521.3137829912023,43.78576234388162
522.3147605083088,44.636966052527924
523.3157380254154,44.51043953980278
524.3167155425219,43.35580093395156
525.3176930596285,46.93439100014525
526.318670576735,47.85364443723031
527.3196480938416,46.30396327552988
528.3206256109481,45.63642069380789
529.3216031280547,46.60096659827494
530.3225806451612,46.75910512435504
531.3235581622678,48.0655354623578
532.3245356793743,48.09333676450965
533.3255131964809,48.191033832280645
534.3264907135874,49.564672006148385
535.327468230694,51.24859610226762
536.3284457478005,50.15490465102886
537.3294232649071,51.21578650282854
538.3304007820136,53.39219030653797
539.3313782991202,55.73043918773614
540.3323558162267,57.45532070721666
541.3333333333333,57.897314753214395
542.3343108504398,59.19167940796624
543.3352883675464,61.46203011305391
544.3362658846529,63.41211226720514
545.3372434017595,62.18304624788598
546.338220918866,58.30628916212128
547.3391984359725,58.95953433729321
548.3401759530791,58.13743661773009
549.3411534701856,57.379235448067234
550.3421309872922,56.703958941407016
551.3431085043987,55.732376246395205
552.3440860215054,54.92181770303754
553.345063538612,55.10886267793876
554.3460410557185,56.44389598632825
555.347018572825,56.772538898785704
556.3479960899316,57.68599957296858
557.3489736070381,59.81252210629082
558.3499511241447,59.54696749279946
559.3509286412512,61.65914361823059
560.3519061583578,63.3567169739428
561.3528836754643,66.85068030092182
562.3538611925709,70.24767035430078
563.3548387096774,70.30492386735453
564.355816226784,73.127781935711
565.3567937438905,76.11767815627631
566.3577712609971,79.44745070233428
567.3587487781036,83.33157882821237
568.3597262952102,88.49381775315463
569.3607038123167,95.76817638548017
570.3616813294233,102.7059289144778
571.3626588465298,110.22134318350646
572.3636363636364,117.6568491278688
573.3646138807429,127.48540735116416
574.3655913978495,138.86171776167458
575.366568914956,144.80641907581764
576.3675464320626,159.51243657280355
577.3685239491691,174.32854259271753
578.3695014662757,187.87656946977467
579.3704789833822,201.01224756837075
580.3714565004888,214.4798735427829
581.3724340175953,230.77106610235896
582.3734115347019,245.1395191427901
583.3743890518084,255.681569141766
584.375366568915,263.5681007096884
585.3763440860215,270.1326857485063
586.377321603128,274.71936793253207
587.3782991202346,273.93614308405125
588.3792766373411,270.57547250912074
589.3802541544477,270.7095468590799
590.3812316715542,268.2383575715605
591.3822091886608,260.40373532855506
592.3831867057673,255.43135957049265
593.3841642228739,248.21459938952327
594.3851417399804,240.16677168265525
595.386119257087,235.139972761499
596.3870967741935,233.83183320753957
597.3880742913001,236.5536372941223
598.3890518084066,245.65236523096755
599.3900293255132,256.79493331125235
600.3910068426197,270.7854979479437
601.3919843597263,290.9899304627054
602.3929618768328,311.9639011298927
603.3939393939394,327.53428179681487
604.3949169110459,345.03358402721614
605.3958944281525,351.8924738291236
606.396871945259,356.09262367278023
607.3978494623656,352.3628212785464
608.3988269794721,338.631616536159
609.3998044965787,319.9096147423818
610.4007820136852,294.90166577589207
611.4017595307918,267.09539254660046
612.4027370478983,241.26692719736116
613.4037145650049,215.29667222486933
614.4046920821114,190.00969117351426
615.405669599218,170.5731191379242
616.4066471163245,152.58358786041833
617.4076246334312,137.87821818613622
618.4086021505377,125.09419516073181
619.4095796676443,115.66502714987311
620.4105571847508,108.11090495492863
621.4115347018574,98.29152501778064
622.4125122189639,91.44630654601661
623.4134897360705,87.23676085869853
624.414467253177,83.89909818442538
625.4154447702836,80.34496247228454
626.4164222873901,76.56059354054165
627.4173998044967,73.49312724642482
628.4183773216032,71.52973995905816
629.4193548387098,69.59533470879427
630.4203323558163,65.80729750335094
631.4213098729228,64.72480861606822
632.4222873900294,65.54631504879268
633.423264907136,60.44490548330717
634.4242424242425,57.90690192799174
635.425219941349,56.46247015562409
636.4261974584556,56.65056688384339
637.4271749755621,55.39744395019076
638.4281524926687,52.59321762709093
639.4291300097752,53.624057152779244
640.4301075268818,53.890396611464595
641.4310850439883,52.69011513988466
642.4320625610949,51.31531713808893
643.4330400782014,50.47572219374018
644.434017595308,50.14393006509278
645.4349951124145,50.32914169417849
646.4359726295211,52.53199670645671
647.4369501466276,49.521180305965615
648.4379276637342,47.86786703972297
649.4389051808407,47.91512871071758
650.4398826979473,47.697473699101494
651.4408602150538,47.35933115857368
652.4418377321604,46.87845531842298
653.4428152492669,46.647644208618615
654.4437927663735,49.44277229326846
655.44477028348,50.41644204607225
656.4457478005866,47.91197477654346
657.4467253176931,46.62073400687931
658.4477028347997,45.57656104125747
659.4486803519062,45.898299546445855
660.4496578690128,44.860733979701045
661.4506353861193,45.19253942909029
662.4516129032259,46.586937195803266
663.4525904203324,44.96478602414327
664.453567937439,44.06169748029505
665.4545454545455,45.352516544662635
666.455522971652,45.75807009713124
667.4565004887586,45.09143449355952
668.4574780058651,44.27936923406329
669.4584555229717,43.79327706546768
670.4594330400782,44.00410559855944
671.4604105571848,44.963509311407115
672.4613880742913,44.48345671820673
673.4623655913979,43.923381967349485
674.4633431085044,44.599042474766726
675.464320625611,45.99863334441428
676.4652981427175,46.41447910615355
677.4662756598241,43.90670324906732
678.4672531769306,44.447208525780134
679.4682306940372,45.2966190698059
680.4692082111437,45.89619067623872
681.4701857282503,46.97030609481207
682.4711632453568,46.12283604330992
683.4721407624634,44.969980777682636
684.4731182795699,44.82058186408925
685.4740957966765,47.96502091767039
686.475073313783,49.79962633918918
687.4760508308896,48.07593860952699
688.4770283479961,47.606142908473295
689.4780058651027,47.63084715238985
690.4789833822092,47.04991087524987
691.4799608993158,48.124818626244775
692.4809384164223,49.05256260860203
693.4819159335289,48.75332180831946
694.4828934506354,48.58572071890999
695.483870967742,47.52534116660309
696.4848484848485,48.09469815931563
697.485826001955,48.62784951198154
698.4868035190616,49.51923755201617
699.4877810361681,50.22080490202731
700.4887585532747,50.06306233971621
701.4897360703812,50.7754623909144
702.4907135874878,50.96249139715805
703.4916911045943,51.097822639105644
704.4926686217009,52.08919315001995
705.4936461388074,53.20098824962797
706.494623655914,53.44410131694786
707.4956011730205,53.183589459001766
708.4965786901271,53.32981501883763
709.4975562072336,53.725952482893454
710.4985337243402,53.18728935197366
711.4995112414467,53.36781091224591
712.5004887585533,55.557060476088054
713.5014662756598,57.98572905957619
714.5024437927664,56.14580001446911
715.5034213098729,56.48450361536561
716.5043988269795,58.46848692972647
717.505376344086,59.05644290637064
718.5063538611926,57.86975093822377
719.5073313782991,57.1936427514278
720.5083088954057,57.948721105648694
721.5092864125122,58.74209099595427
722.5102639296188,59.657112039774645
723.5112414467253,61.6055560765391
724.5122189638319,62.75073305598085
725.5131964809384,62.60425256582729
726.514173998045,62.68483423960238
727.5151515151515,62.633609668307216
728.516129032258,64.69611796515244
729.5171065493646,64.45553254009099
730.5180840664711,64.2266031084314
731.5190615835777,65.57810634044235
732.5200391006842,66.73762843505634
733.5210166177908,66.24198095195689
734.5219941348973,66.4959111822969
735.5229716520039,67.10936813219631
736.5239491691104,67.83120423653601
737.524926686217,69.49630806468637
738.5259042033235,70.94481875142822
739.5268817204301,70.50895448287396
740.5278592375366,72.09608612487156
741.5288367546432,72.49133743126914
742.5298142717497,73.05582075185073
743.5307917888563,73.7838228465456
744.5317693059628,73.8471743268261
745.5327468230694,72.85923867693745
746.5337243401759,72.25603696674064
747.5347018572825,75.12382503684078
748.535679374389,76.50167151735145
