Raman Shift,Intensity
104.516,16295.0
105.908,16949.0
107.3,17425.0
108.691,17468.0
110.082,17608.0
111.473,17016.0
112.864,16784.0
114.254,16736.0
115.644,17027.0
117.034,17583.0
118.424,17709.0
119.813,17522.0
121.203,17824.0
122.592,17687.0
123.981,17764.0
125.369,17757.0
126.758,17388.0
128.146,17190.0
129.534,17158.0
130.922,17156.0
132.309,16873.0
133.696,17188.0
135.083,17319.0
136.47,17753.0
137.857,17738.0
139.243,17979.0
140.63,17695.0
142.016,17540.0
143.401,17381.0
144.787,17456.0
146.172,17526.0
147.557,17627.0
148.942,17640.0
150.327,17475.0
151.711,17481.0
153.096,17478.0
154.48,17428.0
155.863,17150.0
157.247,16996.0
158.63,16987.0
160.013,16896.0
161.396,17205.0
162.779,17585.0
164.161,17974.0
165.544,18183.0
166.926,18472.0
168.308,18547.0
169.689,18679.0
171.07,18507.0
172.452,18613.0
173.833,18395.0
175.213,18150.0
176.594,18294.0
177.974,17987.0
179.354,18376.0
180.734,18694.0
182.114,18650.0
183.493,18919.0
184.872,19002.0
186.251,19080.0
187.63,19171.0
189.008,19215.0
190.387,19261.0
191.765,19542.0
193.143,19553.0
194.52,19549.0
195.898,19346.0
197.275,19414.0
198.652,19011.0
200.029,18747.0
201.405,18530.0
202.782,18308.0
204.158,18007.0
205.534,18249.0
206.909,18356.0
208.285,18212.0
209.66,18554.0
211.035,18744.0
212.41,18813.0
213.784,19052.0
215.159,18984.0
216.533,18912.0
217.907,18823.0
219.281,18599.0
220.654,18342.0
222.027,18075.0
223.4,18345.0
224.773,18281.0
226.146,18411.0
227.518,18638.0
228.891,18731.0
230.263,18575.0
231.634,18782.0
233.006,18649.0
234.377,18457.0
235.748,18398.0
237.119,18224.0
238.49,18039.0
239.86,18135.0
241.231,17830.0
242.601,17976.0
243.97,17994.0
245.34,18051.0
246.709,18110.0
248.079,18169.629
249.448,18252.0
250.816,18360.625
252.185,18486.0
253.553,18626.0
254.921,18782.0
256.289,18957.0
257.657,19025.0
259.024,19304.0
260.391,19343.0
261.758,19522.0
263.125,19386.0
264.492,19366.0
265.858,19200.0
267.224,19194.0
268.59,18987.0
269.956,18838.0
271.321,19062.0
272.687,18904.0
274.052,18803.0
275.416,18880.0
276.781,19068.0
278.146,19114.0
279.51,19014.0
280.874,19273.0
282.237,19166.0
283.601,19382.0
284.964,19496.0
286.327,19440.0
287.69,19713.0
289.053,19756.0
290.416,20007.0
291.778,20352.0
293.14,20409.0
294.502,20867.0
295.863,20912.0
297.225,21249.0
298.586,21320.0
299.947,21262.0
301.308,21410.0
302.668,21066.0
304.029,20992.0
305.389,20884.0
306.749,20668.0
308.108,20598.0
309.468,20697.0
310.827,20541.0
312.186,20802.0
313.545,20515.0
314.903,20718.0
316.262,20921.0
317.62,20769.0
318.978,20866.0
320.336,20884.0
321.693,20807.0
323.051,20978.0
324.408,21116.0
325.765,20796.0
327.121,21313.0
328.478,21166.0
329.834,21042.0
331.19,21184.0
332.546,21222.0
333.902,21017.0
335.257,21179.0
336.612,21182.0
337.967,21229.0
339.322,21202.0
340.677,21295.242
342.031,21406.965
343.385,21401.0
344.739,21577.0
346.093,21494.0
347.446,21285.0
348.799,21376.0
350.153,21414.0
351.505,21499.0
352.858,21512.0
354.21,21365.0
355.563,21564.0
356.915,21494.0
358.267,21560.0
359.618,21826.0
360.969,21903.0
362.321,22281.0
363.672,22237.0
365.022,22321.0
366.373,22440.0
367.723,22340.0
369.073,22502.0
370.423,22469.0
371.773,22565.0
373.122,22241.0
374.471,22366.0
375.821,22558.0
377.169,22068.0
378.518,22487.0
379.866,22064.0
381.215,22104.0
382.563,22278.0
383.91,22186.0
385.258,22195.0
386.605,22369.0
387.952,22490.0
389.299,22194.0
390.646,22360.0
391.992,22369.0
393.339,22186.0
394.685,22171.0
396.031,22072.0
397.376,22061.014
398.722,22118.0
400.067,22116.0
401.412,22066.0
402.757,22144.0
404.101,22236.0
405.446,22218.0
406.79,22096.0
408.134,22328.0
409.478,22241.0
410.821,22473.0
412.165,22434.0
413.508,22451.0
414.851,22841.0
416.193,22882.0
417.536,22805.0
418.878,22905.0
420.22,23044.0
421.562,22897.0
422.904,22802.0
424.245,23078.0
425.586,23146.0
426.927,23317.0
428.268,23540.0
429.609,23588.0
430.949,23917.238
432.289,24141.0
433.629,24494.0
434.969,24778.0
436.309,25036.0
437.648,25129.0
438.987,25586.0
440.326,25203.0
441.665,24503.0
443.003,24366.0
444.342,24444.0
445.68,23960.0
447.018,24065.0
448.355,23876.0
449.693,23418.0
451.03,23653.0
452.367,23470.0
453.704,23620.0
455.041,23290.0
456.377,23530.0
457.713,23624.0
459.049,23494.0
460.385,23564.0
461.721,23651.0
463.056,23851.0
464.391,23856.0
465.726,23867.0
467.061,24304.0
468.395,24227.0
469.73,24298.0
471.064,24768.0
472.398,24546.0
473.731,25112.0
475.065,24946.0
476.398,25480.0
477.731,25752.0
479.064,26242.0
480.397,26173.0
481.729,26340.0
483.062,26457.0
484.394,26364.0
485.725,26329.0
487.057,26216.0
488.389,26048.0
489.72,25964.0
491.051,25811.0
492.382,25743.0
493.712,25607.0
495.043,25725.0
496.373,25564.0
497.703,25381.0
499.032,25572.0
500.362,25569.0
501.691,25399.0
503.02,25626.0
504.349,25257.0
505.678,25432.0
507.007,25387.0
508.335,25475.0
509.663,25369.0
510.991,25545.0
512.319,25607.0
513.646,25700.0
514.973,25796.0
516.3,25930.0
517.627,26112.0
518.954,26352.0
520.28,26494.607
521.607,26608.0
522.933,26922.0
524.259,27250.0
525.584,27642.0
526.91,27644.0
528.235,28053.0
529.56,28226.0
530.885,28067.0
532.209,27348.0
533.534,27089.0
534.858,27038.0
536.182,26904.0
537.506,26865.0
538.829,26774.275
540.152,26808.0
541.476,26657.0
542.799,26726.0
544.121,26761.646
545.444,26829.0
546.766,26781.0
548.088,26916.0
549.41,26929.0
550.732,27088.0
552.053,27289.0
553.375,27410.0
554.696,27453.482
556.017,27248.0
557.337,27458.0
558.658,27336.0
559.978,27303.0
561.298,27382.0
562.618,27534.0
563.938,27405.0
565.257,27687.0
566.576,27833.0
567.895,27601.0
569.214,27971.0
570.533,28206.0
571.851,28314.0
573.17,28275.0
574.488,28864.0
575.805,28911.0
577.123,29254.0
578.44,29581.0
579.758,29980.0
581.075,30818.0
582.391,31189.0
583.708,32505.0
585.024,32907.0
586.341,34234.0
587.657,35585.0
588.972,36967.0
590.288,38251.0
591.603,38771.0
592.918,38661.0
594.233,38635.0
595.548,37849.0
596.863,36850.0
598.177,35671.0
599.491,34385.0
600.805,33546.0
602.119,32803.0
603.432,31800.0
604.746,31387.0
606.059,30742.0
607.372,30344.0
608.685,29817.0
609.997,29935.0
611.309,29499.0
612.621,29371.199
613.933,29032.0
615.245,29128.0
616.557,29128.0
617.868,29136.0
619.179,28938.0
620.49,29076.0
621.801,28616.0
623.111,29097.0
624.421,28566.0
625.731,29184.0
627.041,28436.0
628.351,29082.0
629.66,28535.0
630.97,28413.0
632.279,29072.0
633.588,28550.0
634.896,28578.0
636.205,28598.0
637.513,28766.0
638.821,28512.0
640.129,28678.0
641.437,29008.0
642.744,28809.0
644.051,28808.0
645.358,28723.0
646.665,28864.0
647.972,29046.0
649.278,28896.0
650.584,29009.0
651.89,28844.0
653.196,29224.0
654.502,29038.0
655.807,29204.0
657.113,29013.0
658.418,29199.0
659.722,29332.0
661.027,29264.0
662.331,29165.0
663.636,29232.0
664.94,29486.0
666.244,29209.0
667.547,29474.0
668.851,29402.0
670.154,29532.0
671.457,29458.0
672.76,29554.0
674.062,29889.0
675.365,29581.0
676.667,30180.0
677.969,29883.0
679.271,29692.0
680.572,29921.0
681.874,29685.0
683.175,30099.0
684.476,30026.0
685.777,29924.0
687.077,29992.0
688.378,29854.0
689.678,30155.0
690.978,30262.0
692.278,30128.0
693.577,29712.0
694.877,30662.0
696.176,30043.0
697.475,30352.0
698.774,30441.0
700.072,30443.0
701.371,30454.0
702.669,30557.0
703.967,30307.0
705.265,30889.0
706.562,30988.0
707.86,30956.0
709.157,30660.0
710.454,31080.0
711.751,30878.0
713.047,31265.0
714.344,31112.0
715.64,31459.0
716.936,31120.0
718.232,31343.0
719.527,31784.0
720.823,32027.0
722.118,32088.0
723.413,32172.0
724.708,32154.0
726.002,32427.0
727.297,32750.0
728.591,32532.0
729.885,33299.0
731.179,33636.0
732.472,33758.0
733.766,33733.0
735.059,33750.0
736.352,34034.0
737.645,34311.0
738.937,34420.0
740.23,34489.0
741.522,34675.594
742.814,34416.0
744.106,34784.0
745.397,34881.0
746.689,34627.0
747.98,34480.0
749.271,34885.0
750.562,34250.0
751.853,34456.0
753.143,33726.0
754.433,33905.0
755.723,33666.0
757.013,33209.0
758.303,33656.0
759.592,32890.0
760.881,33119.0
762.17,32993.0
763.459,33139.0
764.748,32865.0
766.036,32780.0
767.325,33356.0
768.613,32745.0
769.901,33008.0
771.188,32921.0
772.476,32790.0
773.763,33104.0
775.05,32746.0
776.337,33148.0
777.624,33046.0
778.91,33164.0
780.196,33094.0
781.482,33357.0
782.768,33119.0
784.054,33063.0
785.339,33406.0
786.625,33489.0
787.91,33368.0
789.195,33625.0
790.479,33480.0
791.764,33610.0
793.048,33838.0
794.332,33618.0
795.616,34010.0
796.9,33888.0
798.183,34072.0
799.467,33900.0
800.75,34224.0
802.033,34145.0
803.316,34169.0
804.598,34813.0
805.88,34373.0
807.163,34976.0
808.445,34897.0
809.726,35133.0
811.008,35185.0
812.289,35507.0
813.57,35376.0
814.851,35618.0
816.132,35586.0
817.413,35756.0
818.693,35739.168
819.973,35525.0
821.253,35715.0
822.533,35552.0
823.813,35612.0
825.092,35249.0
826.371,35392.0
827.65,35260.0
828.929,35230.0
830.208,35234.727
831.486,35579.0
832.764,35255.0
834.042,35470.0
835.32,35681.0
836.598,35409.0
837.875,35977.0
839.152,35739.0
840.429,35864.0
841.706,36401.0
842.983,35970.0
844.259,36225.0
845.536,36344.0
846.812,36164.0
848.088,36216.0
849.363,35858.0
850.639,36344.0
851.914,36283.0
853.189,35925.0
854.464,36232.0
855.739,36270.0
857.013,36294.0
858.288,36224.0
859.562,35872.0
860.836,36315.0
862.11,36194.0
863.383,35936.0
864.656,36478.0
865.93,36096.0
867.203,36465.0
868.475,36641.0
869.748,36483.0
871.02,36266.0
872.292,36615.0
873.564,36460.0
874.836,36648.0
876.108,36321.0
877.379,36277.0
878.65,37101.0
879.922,37006.0
881.192,36887.0
882.463,36896.0
883.733,36928.0
885.004,36779.0
886.274,36948.0
887.544,36816.0
888.813,37428.0
890.083,37016.0
891.352,36905.0
892.621,37348.0
893.89,37083.0
895.159,37176.0
896.427,37227.0
897.695,37053.0
898.964,37705.0
900.232,37372.0
901.499,37636.0
902.767,37763.0
904.034,37834.0
905.301,37472.0
906.568,37844.0
907.835,38322.0
909.102,37916.0
910.368,37858.0
911.634,37832.0
912.9,38112.0
914.166,37800.0
915.432,38204.0
916.697,38192.0
917.962,37994.0
919.227,38264.0
920.492,38358.0
921.757,38508.0
923.021,38582.758
924.285,38678.0
925.55,38752.0
926.813,38729.0
928.077,39024.0
929.341,38873.0
930.604,38941.0
931.867,39372.0
933.13,39040.0
934.393,39163.0
935.655,39848.0
936.918,39066.0
938.18,39940.0
939.442,39392.0
940.703,39684.0
941.965,39907.0
943.226,39809.0
944.488,39694.0
945.749,39832.0
947.009,39759.418
948.27,40036.0
949.53,39901.0
950.791,40050.0
952.051,40346.0
953.311,40037.0
954.57,40051.0
955.83,40563.0
957.089,40532.0
958.348,41272.0
959.607,40838.0
960.866,41202.0
962.124,41046.0
963.383,41356.0
964.641,41718.0
965.899,42068.0
967.156,42514.0
968.414,42560.0
969.671,42688.0
970.928,43034.0
972.185,43012.0
973.442,43221.0
974.699,42942.0
975.955,43037.0
977.211,42915.0
978.468,42675.0
979.723,42812.0
980.979,42915.0
982.234,42394.0
983.49,43236.0
984.745,42112.0
986.0,42521.0
987.254,42339.0
988.509,41904.0
989.763,42340.0
991.017,41920.0
992.271,41849.0
993.525,42326.0
994.779,42157.0
996.032,42388.0
997.285,42525.0
998.538,42586.0
999.791,42435.0
1001.044,43347.0
1002.296,42893.0
1003.548,43516.0
1004.8,43570.0
1006.052,43233.0
1007.304,43294.0
1008.555,42978.0
1009.807,43081.0
1011.058,43317.0
1012.309,43340.0
1013.559,43528.0
1014.81,43258.0
1016.06,42860.0
1017.31,43412.0
1018.56,43216.0
1019.81,42773.0
1021.06,43171.0
1022.309,43181.0
1023.558,42649.0
1024.807,43137.0
1026.056,42819.0
1027.305,42920.0
1028.553,42772.0
1029.801,42704.105
1031.049,43000.0
1032.297,42659.0
1033.545,42576.0
1034.793,42632.297
1036.04,42904.0
1037.287,43064.0
1038.534,43156.0
1039.781,43461.0
1041.027,43592.0
1042.274,43622.461
1043.52,43140.0
1044.766,43546.0
1046.012,43120.0
1047.257,42872.0
1048.503,43041.0
1049.748,43514.0
1050.993,42913.0
1052.238,43526.0
1053.483,43462.0
1054.727,43088.0
1055.971,43536.0
1057.216,43600.0
1058.459,43533.0
1059.703,43742.0
1060.947,43540.0
1062.19,43876.0
1063.433,43625.0
1064.676,43890.0
1065.919,43779.0
1067.162,43670.0
1068.404,44197.0
1069.646,43592.0
1070.888,43875.0
1072.13,44205.0
1073.372,43744.0
1074.613,44035.0
1075.855,44193.0
1077.096,43890.0
1078.337,44032.0
1079.578,44176.0
1080.818,43921.0
1082.059,44189.0
1083.299,43868.0
1084.539,44318.0
1085.779,43937.0
1087.018,44082.0
1088.258,44213.0
1089.497,44205.0
1090.736,44233.0
1091.975,44284.0
1093.213,44267.0
1094.452,43848.0
1095.69,44084.812
1096.928,44069.0
1098.166,44368.0
1099.404,44484.0
1100.642,44816.0
1101.879,44677.0
1103.116,44925.0
1104.353,44601.0
1105.59,44954.0
1106.827,45281.0
1108.063,45325.0
1109.299,44816.0
1110.536,45142.0
1111.771,45185.0
1113.007,44536.0
1114.243,45504.0
1115.478,45496.0
1116.713,45582.0
1117.948,45643.0
1119.183,45672.0
1120.418,45346.0
1121.652,45696.0
1122.886,45857.0
1124.12,45805.0
1125.354,46163.0
1126.588,45528.0
1127.821,46016.0
1129.055,45419.0
1130.288,46040.0
1131.521,45881.0
1132.753,46008.0
1133.986,45717.0
1135.218,45732.0
1136.45,46425.0
1137.682,45459.0
1138.914,46300.0
1140.146,45800.0
1141.377,45838.0
1142.609,45825.0
1143.84,46130.0
1145.071,46185.0
1146.301,46386.0
1147.532,46408.0
1148.762,46371.0
1149.992,46261.0
1151.222,45984.0
1152.452,46513.0
1153.682,46836.0
1154.911,46124.0
1156.14,46660.0
1157.369,46669.0
1158.598,46601.0
1159.827,46684.0
1161.055,46667.598
1162.284,46813.0
1163.512,46816.0
1164.74,46932.0
1165.967,47036.164
1167.195,46784.0
1168.422,47232.0
1169.65,47336.0
1170.877,47376.0
1172.103,47131.0
1173.33,47448.0
1174.557,47250.0
1175.783,47808.0
1177.009,47776.0
1178.235,47086.0
1179.461,47869.0
1180.686,47754.0
1181.912,47760.0
1183.137,47849.0
1184.362,48265.0
1185.587,48086.0
1186.811,48187.0
1188.036,48177.0
1189.26,48192.0
1190.484,48381.0
1191.708,48448.0
1192.932,48472.402
1194.155,48572.0
1195.378,48654.0
1196.602,48713.0
1197.825,49126.0
1199.047,48920.0
1200.27,49220.0
1201.492,49168.0
1202.715,49776.0
1203.937,49708.191
1205.159,49688.0
1206.38,49678.0
1207.602,49524.0
1208.823,49593.715
1210.044,49577.645
1211.265,49686.0
1212.486,49660.0
1213.707,49771.0
1214.927,49840.0
1216.147,49848.0
1217.367,49867.465
1218.587,49875.867
1219.807,49825.0
1221.027,49837.0
1222.246,49828.0
1223.465,49758.0
1224.684,50104.0
1225.903,50219.0
1227.121,50003.0
1228.34,50089.0
1229.558,50576.0
1230.776,50508.0
1231.994,50575.0
1233.212,50472.0
1234.429,51113.0
1235.646,50765.0
1236.864,50594.0
1238.081,51173.0
1239.297,50626.0
1240.514,51084.0
1241.73,51264.0
1242.947,50973.0
1244.163,51136.0
1245.378,51172.0
1246.594,51530.0
1247.81,51467.0
1249.025,50930.0
1250.24,51752.0
1251.455,51544.0
1252.67,51328.0
1253.885,51701.0
1255.099,51833.0
1256.313,51520.0
1257.527,51002.0
1258.741,52060.0
1259.955,52189.0
1261.168,51560.0
1262.382,51712.0
1263.595,52122.0
1264.808,51932.0
1266.021,51993.0
1267.233,52288.0
1268.446,52249.0
1269.658,52189.0
1270.87,52145.0
1272.082,52378.0
1273.294,52310.0
1274.505,52491.0
1275.716,52368.0
1276.928,52579.0
1278.139,52456.0
1279.349,53040.0
1280.56,52858.0
1281.77,52952.0
1282.981,52966.0
1284.191,53080.0
1285.401,53509.0
1286.61,53486.0
1287.82,52892.0
1289.029,53486.0
1290.239,53249.0
1291.448,53867.0
1292.656,53532.0
1293.865,53825.0
1295.073,53812.0
1296.282,54165.0
1297.49,53722.0
1298.698,53888.0
1299.906,54153.0
1301.113,54370.0
1302.32,54448.0
1303.528,54159.0
1304.735,54738.0
1305.942,54362.0
1307.148,54606.0
1308.355,55089.0
1309.561,54552.0
1310.767,55264.0
1311.973,54833.0
1313.179,55108.0
1314.384,54674.0
1315.59,54798.625
1316.795,55035.0
1318.0,55134.0
1319.205,55304.234
1320.41,55499.0
1321.614,55539.0
1322.819,55638.98
1324.023,55620.0
1325.227,55643.0
1326.431,55896.0
1327.634,55510.0
1328.838,55232.0
1330.041,55738.0
1331.244,55779.0
1332.447,55888.0
1333.65,55588.0
1334.852,55889.0
1336.055,56051.0
1337.257,55920.0
1338.459,56074.0
1339.661,56027.0
