Raman Shift,Intensity 
400,10.84732645
401,10.85202531
402,10.7636953
403,10.81905085
404,10.86460077
405,10.78996808
406,10.81226492
407,10.79312752
408,10.8493066
409,10.82357137
410,10.75747828
411,10.80819981
412,10.80342682
413,10.79294275
414,10.78655136
415,10.79289414
416,10.84502705
417,10.84979146
418,10.81224062
419,10.7782304
420,10.82548504
421,10.81092206
422,10.80331731
423,10.80998689
424,10.74894289
425,10.77688558
426,10.74891463
427,10.8364317
428,10.70015551
429,10.79928468
430,10.7270853
431,10.82611349
432,10.88791912
433,10.72206157
434,10.72557751
435,10.8103884
436,10.79087637
437,10.86742742
438,10.83243877
439,10.81785482
440,10.78859884
441,10.83393672
442,10.76029067
443,10.79811592
444,10.77642268
445,10.7803238
446,10.82738909
447,10.72161509
448,10.78496207
449,10.80123837
450,10.8131257
451,10.85611994
452,10.83862823
453,10.81426927
454,10.80642379
455,10.75005582
456,10.7860515
457,10.80722937
458,10.79400774
459,10.72575019
460,10.86626533
461,10.7820448
462,10.80824464
463,10.75309742
464,10.79094265
465,10.92098156
466,10.78793205
467,10.85757662
468,10.78509516
469,10.78453788
470,10.78224195
471,10.8192689
472,10.74515225
473,10.78363006
474,10.8796137
475,10.87900204
476,10.81582172
477,10.78480751
478,10.79784389
479,10.78973013
480,10.76642785
481,10.83168974
482,10.74112677
483,10.76911851
484,10.77983779
485,10.8188548
486,10.82636184
487,10.871602
488,10.8554556
489,10.76145924
490,10.79954258
491,10.82942438
492,10.81927426
493,10.71715453
494,10.81922638
495,10.79610259
496,10.78115251
497,10.82654008
498,10.82239972
499,10.76495064
500,10.89331334
501,10.79953889
502,10.80381492
503,10.82547949
504,10.76487417
505,10.77252339
506,10.82390553
507,10.78531821
508,10.8100287
509,10.85990158
510,10.73573478
511,10.78588758
512,10.83778943
513,10.76410812
514,10.83418121
515,10.75366727
516,10.8586853
517,10.83391507
518,10.7981105
519,10.859393
520,10.83266067
521,10.80202446
522,10.77361228
523,10.79730953
524,10.90232935
525,10.7783569
526,10.7773078
527,10.75189101
528,10.86225339
529,10.77767759
530,10.78232287
531,10.71661654
532,10.80654751
533,10.78630685
534,10.78667543
535,10.79399908
536,10.72968271
537,10.87068814
538,10.79701851
539,10.78586538
540,10.84534788
541,10.8472184
542,10.78652343
543,10.81534149
544,10.80238333
545,10.73767755
546,10.79021591
547,10.74308483
548,10.80197711
549,10.77039275
550,10.78470959
551,10.77154872
552,10.84551141
553,10.73675225
554,10.78514472
555,10.78434904
556,10.72586667
557,10.74842013
558,10.81711093
559,10.83279014
560,10.82984157
561,10.79592444
562,10.83847832
563,10.85581922
564,10.79928614
565,10.83842957
566,10.75442075
567,10.72597365
568,10.76230006
569,10.85999878
570,10.78941747
571,10.73059902
572,10.75187067
573,10.77590557
574,10.87059886
575,10.77592459
576,10.84048441
577,10.79939903
578,10.83197855
579,10.8234716
580,10.7089558
581,10.82008031
582,10.86670038
583,10.84014221
584,10.71798451
585,10.77004987
586,10.83050968
587,10.79797089
588,10.79515588
589,10.77251722
590,10.73224049
591,10.83739232
592,10.7320318
593,10.81183962
594,10.82712362
595,10.79594806
596,10.80536624
597,10.76138884
598,10.8286391
599,10.7411128
600,10.8014985
601,10.79754482
602,10.7879632
603,10.80488458
604,10.82028519
605,10.81446832
606,10.77499603
607,10.76473678
608,10.82419256
609,10.75439329
610,10.80799649
611,10.7909546
612,10.81970743
613,10.81281063
614,10.77472854
615,10.76429226
616,10.84857284
617,10.7159296
618,10.77756286
619,10.83936854
620,10.79050471
621,10.82953973
622,10.7351345
623,10.75761889
624,10.7860801
625,10.77260714
626,10.79830531
627,10.77322053
628,10.75577932
629,10.79279549
630,10.8422534
631,10.80430738
632,10.7083203
633,10.81485019
634,10.76971241
635,10.89718456
636,10.79047589
637,10.7744831
638,10.77106737
639,10.85904173
640,10.79829232
641,10.80192371
642,10.84023417
643,10.78703837
644,10.77068841
645,10.8128026
646,10.79195872
647,10.83934633
648,10.79821668
649,10.88498808
650,10.85348629
651,10.87564181
652,10.76770784
653,10.8371481
654,10.84340043
655,10.81881245
656,10.76651625
657,10.79734023
658,10.77987399
659,10.81855994
660,10.76956458
661,10.79890321
662,10.78878552
663,10.83273447
664,10.81732258
665,10.77353416
666,10.85595207
667,10.82783725
668,10.8014851
669,10.76312605
670,10.80867872
671,10.78247634
672,10.80470984
673,10.75486283
674,10.78976482
675,10.8387582
676,10.78478552
677,10.76970076
678,10.75748433
679,10.73707407
680,10.81678167
681,10.83554995
682,10.79792768
683,10.84563505
684,10.82516297
685,10.704146
686,10.83251235
687,10.83630897
688,10.79545104
689,10.83945574
690,10.8453524
691,10.75550636
692,10.86670967
693,10.81403519
694,10.82738224
695,10.79705785
696,10.79886739
697,10.76968323
698,10.76997618
699,10.79454496
700,10.78017786
701,10.79226
702,10.8641292
703,10.80270884
704,10.81430122
705,10.81840301
706,10.80249361
707,10.80494738
708,10.74688902
709,10.84205013
710,10.81609834
711,10.86274483
712,10.76134983
713,10.8376495
714,10.77857943
715,10.76980647
716,10.77859275
717,10.80490567
718,10.81221894
719,10.81682605
720,10.77983525
721,10.80827844
722,10.81892259
723,10.81386395
724,10.84632166
725,10.73433867
726,10.80342731
727,10.8297086
728,10.80112423
729,10.7849241
730,10.78052492
731,10.74761601
732,10.85924213
733,10.79374724
734,10.74671731
735,10.82252446
736,10.85747822
737,10.83605569
738,10.80058867
739,10.72875371
740,10.74348513
741,10.86429346
742,10.75404803
743,10.73129312
744,10.7853737
745,10.79714721
746,10.73857979
747,10.81813944
748,10.79180203
749,10.77031239
750,10.7419921
751,10.77061678
752,10.77293174
753,10.81438971
754,10.78075288
755,10.80838902
756,10.79697826
757,10.84754662
758,10.7973976
759,10.84718407
760,10.7862058
761,10.74992274
762,10.85171556
763,10.81328777
764,10.75977141
765,10.81840459
766,10.81385216
767,10.81319709
768,10.73912083
769,10.74698384
770,10.70974125
771,10.70545482
772,10.79159666
773,10.79634873
774,10.77625215
775,10.76144161
776,10.81805666
777,10.76660357
778,10.79981661
779,10.76709846
780,10.8480623
781,10.80676071
782,10.77862944
783,10.85253479
784,10.81678824
785,10.72234627
786,10.75418189
787,10.73283001
788,10.77970638
789,10.7814265
790,10.79690489
791,10.7520182
792,10.84615304
793,10.83903135
794,10.77207376
795,10.81996199
796,10.84505672
797,10.77260823
798,10.86764293
799,10.82921629
800,10.78732574
801,10.80345544
802,10.74029604
803,10.82669642
804,10.78072467
805,10.77512844
806,10.82643689
807,10.73350326
808,10.84028406
809,10.76122705
810,10.86915778
811,10.86577104
812,10.89059848
813,10.80659659
814,10.8286843
815,10.80044649
816,10.75224975
817,10.79793352
818,10.78761547
819,10.83817395
820,10.83628126
821,10.80657277
822,10.79798327
823,10.83140569
824,10.86258039
825,10.828488
826,10.77173904
827,10.75415554
828,10.75396984
829,10.81747053
830,10.72565713
831,10.74746062
832,10.71643963
833,10.8455855
834,10.82963586
835,10.7862811
836,10.82784145
837,10.78587835
838,10.79100945
839,10.83422946
840,10.80903866
841,10.83428718
842,10.73451413
843,10.84392032
844,10.85449342
845,10.76492447
846,10.78272693
847,10.73833667
848,10.79560831
849,10.7895614
850,10.8816513
851,10.79730327
852,10.71998999
853,10.80978163
854,10.83162645
855,10.75987423
856,10.7885878
857,10.75717043
858,10.7231675
859,10.85852295
860,10.74636359
861,10.82197731
862,10.78163264
863,10.80429973
864,10.78604281
865,10.79334409
866,10.83007314
867,10.79302618
868,10.85415205
869,10.82111374
870,10.82198641
871,10.86062812
872,10.82109936
873,10.82865083
874,10.70884853
875,10.72416469
876,10.83349933
877,10.81486583
878,10.72769439
879,10.77048281
880,10.7839993
881,10.79283197
882,10.80741156
883,10.79879134
884,10.78272463
885,10.79009233
886,10.794353
887,10.81782702
888,10.73388241
889,10.70366412
890,10.76585369
891,10.81770891
892,10.78058064
893,10.87231455
894,10.79637121
895,10.79527062
896,10.81975689
897,10.725194
898,10.80117351
899,10.79602994
900,10.79306277
901,10.77442872
902,10.83931241
903,10.78096618
904,10.82729485
905,10.71922249
906,10.81212396
907,10.81571233
908,10.7745896
909,10.79359333
910,10.83152492
911,10.75694368
912,10.8030418
913,10.8158035
914,10.75386997
915,10.80193868
916,10.798247
917,10.84495027
918,10.78124227
919,10.78983717
920,10.78336903
921,10.79563586
922,10.8144001
923,10.82530713
924,10.7704535
925,10.74201032
926,10.797845
927,10.85377343
928,10.82493129
929,10.85416951
930,10.82958812
931,10.84211133
932,10.8342964
933,10.78870348
934,10.81095156
935,10.83117206
936,10.73667337
937,10.82525254
938,10.7692074
939,10.78295211
940,10.79776357
941,10.82897026
942,10.77148159
943,10.76082244
944,10.79053895
945,10.80770995
946,10.80801022
947,10.81020835
948,10.78652494
949,10.78923548
950,10.82170933
951,10.84262688
952,10.75471451
953,10.7544215
954,10.82762899
955,10.83019089
956,10.75875789
957,10.79331321
958,10.76799238
959,10.82698743
960,10.80443721
961,10.74868695
962,10.84864747
963,10.79634724
964,10.85207137
965,10.85285459
966,10.77955315
967,10.81302155
968,10.73105332
969,10.78994067
970,10.81079987
971,10.84149038
972,10.76570289
973,10.85636308
974,10.84077775
975,10.74958713
976,10.84511113
977,10.79049668
978,10.78491483
979,10.71064405
980,10.86904071
981,10.77830087
982,10.81411124
983,10.83825769
984,10.76105329
985,10.80723556
986,10.8298698
987,10.79409048
988,10.80598314
989,10.75747251
990,10.76141809
991,10.8290791
992,10.81238143
993,10.76845725
994,10.76550954
995,10.75006467
996,10.84052188
997,10.76245248
998,10.74636521
999,10.74611987
1000,10.76003723
1001,10.77320158
1002,10.76085749
1003,10.72220173
1004,10.90200193
1005,10.80321186
1006,10.7679611
1007,10.75697216
1008,10.7717823
1009,10.88298007
1010,10.84402478
1011,10.79305744
1012,10.8087294
1013,10.80482934
1014,10.84293429
1015,10.83799226
1016,10.80967282
1017,10.80834816
1018,10.80349099
1019,10.79819802
1020,10.79400381
1021,10.76679302
1022,10.79930758
1023,10.78829008
1024,10.81962167
1025,10.76318668
1026,10.78593921
1027,10.79012289
1028,10.79137333
1029,10.78187995
1030,10.84100544
1031,10.78036256
1032,10.73836266
1033,10.83437387
1034,10.77985039
1035,10.82934614
1036,10.86290484
1037,10.7864547
1038,10.83833173
1039,10.84505228
1040,10.80071263
1041,10.75969167
1042,10.82475752
1043,10.74871007
1044,10.77491115
1045,10.86358031
1046,10.83044231
1047,10.78314284
1048,10.81853072
1049,10.79648534
1050,10.86467482
1051,10.85796126
1052,10.87230727
1053,10.77695322
1054,10.79835574
1055,10.82065804
1056,10.86342788
1057,10.84551108
1058,10.77609194
1059,10.81437538
1060,10.74279407
1061,10.80275083
1062,10.76057015
1063,10.84677804
1064,10.74192056
1065,10.8248684
1066,10.77987522
1067,10.745261
1068,10.81502972
1069,10.79125149
1070,10.75685069
1071,10.84064231
1072,10.79822763
1073,10.82851844
1074,10.79710149
1075,10.83471123
1076,10.79263883
1077,10.7162974
1078,10.79409415
1079,10.82439999
1080,10.8591744
1081,10.79649931
1082,10.75963943
1083,10.73975445
1084,10.78048817
1085,10.75944608
1086,10.84581816
1087,10.76541737
1088,10.83986974
1089,10.83686024
1090,10.75654136
1091,10.75684562
1092,10.83088926
1093,10.79801505
1094,10.76072055
1095,10.75967735
1096,10.82213898
1097,10.81466009
1098,10.86806628
1099,10.83669229
1100,10.82247116
1101,10.76554926
1102,10.82871858
1103,10.82798963
1104,10.7372827
1105,10.78308928
1106,10.7552623
1107,10.76228977
1108,10.85578777
1109,10.77612914
1110,10.84488456
1111,10.70315893
1112,10.88601995
1113,10.78196661
1114,10.86938972
1115,10.80873188
1116,10.73564314
1117,10.80573854
1118,10.89176946
1119,10.84378465
1120,10.81802647
1121,10.78440955
1122,10.77478854
1123,10.77412961
1124,10.75343907
1125,10.82422227
1126,10.79287421
1127,10.76517156
1128,10.81504067
1129,10.85163212
1130,10.824546
1131,10.78995063
1132,10.79596409
1133,10.76251215
1134,10.79271724
1135,10.77856081
1136,10.77276419
1137,10.73043534
1138,10.78712883
1139,10.81268169
1140,10.78798316
1141,10.77135611
1142,10.7648171
1143,10.76267097
1144,10.81666523
1145,10.80529786
1146,10.73325681
1147,10.77290697
1148,10.83233314
1149,10.78423031
1150,10.76646467
1151,10.75231979
1152,10.75819465
1153,10.81761735
1154,10.88278367
1155,10.79717034
1156,10.77033893
1157,10.83844551
1158,10.81705354
1159,10.75863262
1160,10.82747443
1161,10.72760274
1162,10.76331318
1163,10.74052504
1164,10.76344175
1165,10.87047479
1166,10.75956176
1167,10.83368895
1168,10.81680034
1169,10.78971069
1170,10.80365595
1171,10.79144222
1172,10.75698332
1173,10.76998159
1174,10.86348369
1175,10.7464955
1176,10.80613989
1177,10.80684116
1178,10.77522898
1179,10.83609086
1180,10.77250406
1181,10.76939652
1182,10.75942083
1183,10.76463707
1184,10.84754688
1185,10.78675535
1186,10.84138023
1187,10.7245807
1188,10.79143631
1189,10.82749002
1190,10.81690783
1191,10.75188951
1192,10.75878322
1193,10.82569087
1194,10.78591948
1195,10.8890506
1196,10.87146658
1197,10.78702817
1198,10.8391017
1199,10.77343986
1200,10.86575535
1201,10.80116726
1202,10.74546357
1203,10.78746569
1204,10.76753086
1205,10.85071555
1206,10.78310129
1207,10.84814718
1208,10.91966417
1209,10.8256376
1210,10.86423829
1211,10.85134541
1212,10.79966789
1213,10.84924355
1214,10.71322662
1215,10.81791058
1216,10.79127111
1217,10.86918345
1218,10.76201006
1219,10.81814065
1220,10.76856924
1221,10.80834011
1222,10.7796266
1223,10.80179435
1224,10.89232042
1225,10.79675481
1226,10.78586912
1227,10.83942837
1228,10.87123223
1229,10.7867858
1230,10.83468973
1231,10.83996892
1232,10.79439027
1233,10.85507972
1234,10.76993797
1235,10.83476887
1236,10.78170335
1237,10.73184653
1238,10.74759029
1239,10.78204984
1240,10.76042913
1241,10.78710457
1242,10.85131582
1243,10.76965279
1244,10.72179183
1245,10.79756062
1246,10.76772627
1247,10.77137256
1248,10.81884027
1249,10.82032976
1250,10.81036713
1251,10.77517001
1252,10.75889952
1253,10.85901919
1254,10.81711833
1255,10.77586104
1256,10.80480961
1257,10.72848009
1258,10.81121952
1259,10.71096937
1260,10.83678429
1261,10.83287253
1262,10.81993059
1263,10.78131007
1264,10.80317031
1265,10.75384368
1266,10.78500771
1267,10.83040296
1268,10.80708396
1269,10.77538635
1270,10.80309162
1271,10.75297424
1272,10.71932695
1273,10.77749349
1274,10.71560985
1275,10.73697811
1276,10.78254925
1277,10.76582367
1278,10.78077563
1279,10.78458386
1280,10.77850926
1281,10.82430372
1282,10.83934248
1283,10.77502924
1284,10.7888976
1285,10.83126754
1286,10.77433357
1287,10.82035636
1288,10.87608135
1289,10.77450077
1290,10.87504996
1291,10.79853454
1292,10.83083631
1293,10.75051857
1294,10.82020848
1295,10.85007211
1296,10.7791993
1297,10.73595598
1298,10.81336612
1299,10.78953135
1300,10.83911224
1301,10.84639931
1302,10.85912523
1303,10.83148261
1304,10.78547023
1305,10.77417669
1306,10.81418388
1307,10.80612285
1308,10.75244817
1309,10.78757029
1310,10.84559877
1311,10.78160958
1312,10.83810427
1313,10.79479215
1314,10.79557617
1315,10.80466621
1316,10.80204194
1317,10.7869718
1318,10.78781224
1319,10.7274565
1320,10.73280354
1321,10.74483893
1322,10.91484851
1323,10.76560141
1324,10.8327703
1325,10.78728854
1326,10.79811251
1327,10.83814479
1328,10.73771945
1329,10.85512457
1330,10.85084919
1331,10.77108124
1332,10.80455902
1333,10.77324125
1334,10.80160398
1335,10.79954218
1336,10.79043444
1337,10.7852504
1338,10.77789346
1339,10.81804528
1340,10.85384429
1341,10.83227274
1342,10.7917457
1343,10.81935207
1344,10.7758798
1345,10.82981726
1346,10.84320224
1347,10.84965223
1348,10.85327805
1349,10.80785036
1350,10.74740465
1351,10.77633486
1352,10.79957948
1353,10.89629387
1354,10.84894794
1355,10.76769075
1356,10.78130714
1357,10.80832183
1358,10.77044706
1359,10.86366631
1360,10.83443428
1361,10.80538756
1362,10.81562853
1363,10.77105584
1364,10.71733357
1365,10.82164179
1366,10.84464007
1367,10.83911708
1368,10.81892234
1369,10.87065444
1370,10.76173214
1371,10.81718498
1372,10.8291406
1373,10.7943811
1374,10.84228019
1375,10.85501372
1376,10.83263701
1377,10.74907942
1378,10.8166499
1379,10.87747229
1380,10.78957219
1381,10.82711257
1382,10.7685407
1383,10.81580218
1384,10.7424051
1385,10.80013964
1386,10.83244227
1387,10.78608531
1388,10.86127881
1389,10.80778069
1390,10.82891617
1391,10.82265738
1392,10.7513644
1393,10.79426373
1394,10.8148396
1395,10.75325297
1396,10.75063601
1397,10.79273007
1398,10.84302554
1399,10.78331481
1400,10.82988566
1401,10.88284084
1402,10.85655292
1403,10.74643354
1404,10.75550583
1405,10.82730001
1406,10.77297638
1407,10.8221031
1408,10.83360416
1409,10.88103903
1410,10.77757925
1411,10.78929293
1412,10.81336803
1413,10.85165124
1414,10.81081754
1415,10.80455104
1416,10.85198217
1417,10.8356405
1418,10.8343359
1419,10.80567043
1420,10.86243862
1421,10.82245
1422,10.86404202
1423,10.87248796
1424,10.83622768
1425,10.78441479
1426,10.81345561
1427,10.7504253
1428,10.86308808
1429,10.85704194
1430,10.79323673
1431,10.84346027
1432,10.86603898
1433,10.81570299
1434,10.85981982
1435,10.77606863
1436,10.79041333
1437,10.80776049
1438,10.85349489
1439,10.83563701
1440,10.78500111
1441,10.88743042
1442,10.81206813
1443,10.81457648
1444,10.86677653
1445,10.82674087
1446,10.80054556
1447,10.8549732
1448,10.82849495
1449,10.85009229
1450,10.85207424
1451,10.91861231
1452,10.90020451
1453,10.85773172
1454,10.844377
1455,10.87023041
1456,10.79999971
1457,10.85261533
1458,10.88699459
1459,10.85218113
1460,10.77854599
1461,10.85682273
1462,10.80321263
1463,10.9190954
1464,10.88360961
1465,10.86816579
1466,10.84228758
1467,10.85580277
1468,10.88136017
1469,10.92802858
1470,10.91233285
1471,10.87120345
1472,10.83362958
1473,10.88073174
1474,10.96577595
1475,10.82155912
1476,10.81648128
1477,10.87454674
1478,10.8941108
1479,10.82665402
1480,10.88876569
1481,10.9266769
1482,10.88726301
1483,10.9156296
1484,10.86368365
1485,10.9450376
1486,10.86097451
1487,10.86710396
1488,10.87392478
1489,10.89230282
1490,10.87979345
1491,10.8497543
1492,10.92282521
1493,10.88550448
1494,10.90685941
1495,10.90050548
1496,10.93362949
1497,10.91833998
1498,10.93336954
1499,10.96375101
1500,10.90590162
1501,10.87743244
1502,10.95495996
1503,10.87217266
1504,10.86555363
1505,10.89918092
1506,10.83469018
1507,10.88070359
1508,10.93120759
1509,10.91150186
1510,10.91961589
1511,10.94358822
1512,10.90847739
1513,10.92290467
1514,10.8714836
1515,10.95626542
1516,10.94300841
1517,10.9098297
1518,10.88526443
1519,10.91174969
1520,10.95297992
1521,10.9048805
1522,10.93815219
1523,10.92462965
1524,10.89832853
1525,10.87910229
1526,10.89208403
1527,10.88563037
1528,10.96363015
1529,10.91591337
1530,10.91603537
1531,10.98276357
1532,10.97070969
1533,10.94440184
1534,10.97526347
1535,10.94789139
1536,10.94508198
1537,10.94151102
1538,11.00843462
1539,10.92261341
1540,10.99966629
1541,10.97318742
1542,10.9606342
1543,10.92665112
1544,10.94867612
1545,11.08678393
1546,11.00557771
1547,10.97761976
1548,10.99722024
1549,10.94080801
1550,10.94415211
1551,10.97763784
1552,10.95807739
1553,11.01292516
1554,10.98232522
1555,10.98306184
1556,10.91763305
1557,10.92985423
1558,10.96905452
1559,10.92852492
1560,10.95159534
1561,11.00401857
1562,10.94336597
1563,10.97410315
1564,10.94880919
1565,10.97316751
1566,11.0629787
1567,10.9757818
1568,11.07954626
1569,11.01447206
1570,11.01240926
1571,11.03546535
1572,10.981829
1573,10.92509093
1574,10.95827206
1575,11.02847728
1576,10.99171719
1577,11.01567747
1578,11.00257092
1579,11.00767423
1580,11.01621208
1581,11.02388168
1582,10.93171034
1583,11.0293625
1584,10.97906116
1585,10.96805306
1586,10.93068577
1587,10.94791419
1588,11.01764772
1589,11.02370513
1590,10.98866476
1591,10.9437149
1592,11.05905418
1593,10.97247187
1594,11.01039742
1595,10.97609557
1596,10.97285567
1597,10.94939447
1598,11.04819716
1599,10.94805574
1600,11.00374904
1601,11.04363037
1602,11.07825075
1603,10.93783556
1604,10.98499972
1605,10.97825326
1606,10.93241475
1607,11.05907036
1608,11.02796883
1609,10.93918126
1610,10.97526696
1611,10.96470193
1612,11.01974244
1613,10.96384664
1614,11.01537179
1615,11.01711793
1616,10.9980037
1617,10.94521448
1618,10.9720633
1619,10.94919251
1620,11.00134553
1621,10.98520992
1622,11.02234633
1623,11.02499319
1624,11.07709348
1625,11.02497349
1626,10.96079445
1627,10.98146275
1628,11.04633328
1629,10.98041809
1630,10.98596964
1631,11.07504419
1632,11.01204143
1633,11.0144479
1634,10.98473469
1635,11.0654599
1636,11.03143047
1637,11.00242928
1638,11.02260054
1639,11.00361195
1640,10.96127611
1641,10.98942656
1642,10.94658906
1643,10.97198252
1644,10.99973705
1645,10.95655607
1646,10.98311108
1647,10.98480496
1648,10.96856029
1649,10.99359941
1650,10.94351837
1651,10.97784389
1652,10.95667991
1653,10.96203198
1654,10.96641103
1655,10.94567419
1656,10.97377337
1657,11.00304105
1658,10.95031098
1659,10.93415154
1660,11.01797285
1661,10.99934806
1662,10.95382721
1663,10.95161974
1664,10.9665565
1665,10.96072575
1666,10.98246349
1667,10.95595247
1668,10.94428483
1669,10.97371699
1670,10.92948283
1671,10.93918551
1672,10.98310958
1673,10.89923292
1674,10.85416225
1675,10.94116805
1676,10.99835264
1677,10.86024025
1678,10.95169399
1679,10.98915286
1680,10.97863152
1681,10.92071421
1682,10.95298101
1683,11.01739625
1684,10.94559316
1685,10.96748749
1686,10.92218149
1687,10.94165283
1688,10.91993082
1689,10.92483336
1690,10.9162283
1691,10.90439406
1692,10.87565884
1693,10.89660997
1694,10.96796522
1695,10.85589087
1696,10.9137403
1697,10.94257742
1698,10.82855502
1699,10.92466842
1700,10.83240337
1701,10.97248392
1702,10.90064668
1703,10.92939812
1704,10.87204999
1705,10.93860112
1706,10.82625889
1707,10.85764254
1708,10.88184263
1709,10.87646735
1710,10.98935108
1711,10.84636847
1712,10.88100124
1713,10.93640032
1714,10.82816151
1715,10.93902497
1716,10.90342723
1717,10.92070129
1718,10.87520207
1719,10.86754135
1720,10.90224154
1721,10.84951869
1722,10.81054207
1723,10.83165507
1724,10.89983061
1725,10.87768803
1726,10.90281407
1727,10.85355108
1728,10.80059891
1729,10.78380046
1730,10.8505165
1731,10.85207675
1732,10.93466033
1733,10.90258626
1734,10.82424385
1735,10.87700316
1736,10.90539282
1737,10.81384679
1738,10.83157823
1739,10.9141824
1740,10.85459494
1741,10.88343538
1742,10.81027667
1743,10.87565587
1744,10.85717946
1745,10.94724211
1746,10.79847488
1747,10.93823411
1748,10.9075342
1749,10.91066907
1750,10.81719736
1751,10.81643886
1752,10.89564668
1753,10.85009188
1754,10.84184915
1755,10.83870221
1756,10.91813472
1757,10.82929386
1758,10.80524129
1759,10.88350092
1760,10.85357827
1761,10.77613757
1762,10.78232789
1763,10.80409183
1764,10.88419529
1765,10.85501554
1766,10.89726598
1767,10.91701527
1768,10.90415471
1769,10.79425647
1770,10.83940688
1771,10.80390276
1772,10.85149804
1773,10.87676469
1774,10.88191479
1775,10.83488258
1776,10.81331639
1777,10.76264759
1778,10.83073764
1779,10.8647221
1780,10.842132
1781,10.7263942
1782,10.78917921
1783,10.89875072
1784,10.86565337
1785,10.85152559
1786,10.79121664
1787,10.79758147
1788,10.82412688
1789,10.7738678
1790,10.84513431
1791,10.75579825
1792,10.82676022
1793,10.81657482
1794,10.79045114
1795,10.79817311
1796,10.891554
1797,10.84316159
1798,10.77620219
1799,10.7867061
1800,10.79114334
1801,10.78813212
1802,10.78397406
1803,10.79885372
1804,10.85214402
1805,10.76078981
1806,10.7594019
1807,10.8010906
1808,10.82967752
1809,10.85002116
1810,10.81041846
1811,10.83719663
1812,10.77663623
1813,10.82292836
1814,10.77213873
1815,10.75289592
1816,10.77989788
1817,10.81371413
1818,10.77914588
1819,10.863923
1820,10.76903467
1821,10.79288462
1822,10.90532159
1823,10.77710295
1824,10.82870411
1825,10.80203392
1826,10.84928106
1827,10.8355127
1828,10.8010685
1829,10.83910842
1830,10.89328956
1831,10.82011029
1832,10.82663719
1833,10.77833958
1834,10.81967129
1835,10.7655112
1836,10.7634317
1837,10.79643469
1838,10.80066636
1839,10.81938781
1840,10.82057006
1841,10.80710482
1842,10.83009071
1843,10.81159884
1844,10.76611433
1845,10.82495741
1846,10.76299643
1847,10.77630606
1848,10.77775233
1849,10.81150811
1850,10.84190664
1851,10.81189401
1852,10.82906539
1853,10.71346701
1854,10.85578344
1855,10.87979447
1856,10.88833133
1857,10.71245552
1858,10.76024719
1859,10.75577606
1860,10.8366504
1861,10.77321755
1862,10.80973531
1863,10.8219778
1864,10.7661668
1865,10.74790849
1866,10.77693645
1867,10.89173284
1868,10.81222991
1869,10.81512758
1870,10.79852836
1871,10.83127931
1872,10.76958833
1873,10.77529519
1874,10.83562653
1875,10.80245923
1876,10.76818968
1877,10.78286259
1878,10.78395399
1879,10.72953445
1880,10.78474856
1881,10.7651194
1882,10.73431794
1883,10.86286462
1884,10.78021031
1885,10.81298789
1886,10.77806981
1887,10.75910767
1888,10.78529344
1889,10.86983344
1890,10.83010428
1891,10.79171219
1892,10.75214146
1893,10.8101125
1894,10.84880782
1895,10.82204618
1896,10.7719587
1897,10.76058726
1898,10.85456913
1899,10.83126299
1900,10.77189696
1901,10.82191308
1902,10.83766946
1903,10.80416536
1904,10.79197078
1905,10.90557361
1906,10.8157097
1907,10.76217332
1908,10.81239433
1909,10.80115104
1910,10.84637527
1911,10.85141977
1912,10.78740721
1913,10.78061053
1914,10.84758814
1915,10.75199131
1916,10.79712361
1917,10.85257385
1918,10.81254903
1919,10.82132572
1920,10.78452794
1921,10.78302078
1922,10.7241729
1923,10.75904493
1924,10.83633016
1925,10.84167656
1926,10.77243823
1927,10.78761661
1928,10.77969975
1929,10.74328134
1930,10.80751621
1931,10.85846536
1932,10.71601645
1933,10.82514777
1934,10.83602465
1935,10.79681114
1936,10.7914195
1937,10.78867444
1938,10.80674279
1939,10.78260937
1940,10.72246278
1941,10.79340409
1942,10.83881788
1943,10.78422365
1944,10.75930533
1945,10.76738852
1946,10.84701133
1947,10.79336536
1948,10.82059473
1949,10.80806344
1950,10.79901304
1951,10.81083809
1952,10.79754364
1953,10.79899941
1954,10.8172074
1955,10.75638871
1956,10.76108621
1957,10.78389525
1958,10.73260095
1959,10.79163836
1960,10.78235244
1961,10.81893598
1962,10.77748962
1963,10.7743039
1964,10.8418325
1965,10.79839173
1966,10.82243423
1967,10.80582312
1968,10.75104383
1969,10.77161662
1970,10.76850605
1971,10.7644614
1972,10.79347471
1973,10.8160693
1974,10.80251703
1975,10.79734011
1976,10.78389478
1977,10.82615757
1978,10.86902243
1979,10.78381448
1980,10.77422879
1981,10.76541912
1982,10.83300177
1983,10.77870672
1984,10.7528505
1985,10.73616404
1986,10.82428531
1987,10.79761937
1988,10.87670084
1989,10.81103529
1990,10.80014794
1991,10.78663308
1992,10.76201234
1993,10.76117322
1994,10.7844148
1995,10.85076694
1996,10.75981704
1997,10.85246471
1998,10.81191015
1999,10.80534273
2000,10.77332069
2001,10.86000583
2002,10.82932802
2003,10.79865367
2004,10.76597722
2005,10.76069263
2006,10.68658122
2007,10.81324665
2008,10.80260622
2009,10.83307684
2010,10.77940316
2011,10.84146114
2012,10.81879115
2013,10.7794223
2014,10.84605995
2015,10.77743687
2016,10.78552485
2017,10.78367936
2018,10.82444482
2019,10.78638603
2020,10.79467326
2021,10.75283966
2022,10.72295299
2023,10.75253962
2024,10.79377089
2025,10.81402594
2026,10.71559499
2027,10.80595483
2028,10.75425984
2029,10.77546412
2030,10.86398972
2031,10.7486056
2032,10.77208548
2033,10.8157554
2034,10.83283614
2035,10.75236864
2036,10.74339808
2037,10.81036424
2038,10.82850158
2039,10.79406919
2040,10.82618379
2041,10.75413752
2042,10.83667154
2043,10.87076572
2044,10.7756636
2045,10.8221937
2046,10.7844146
2047,10.77821615
2048,10.83681793
2049,10.8312856
2050,10.8740836
2051,10.81099474
2052,10.82178125
2053,10.77333237
2054,10.83280953
2055,10.7785374
2056,10.84847204
2057,10.79299964
2058,10.76698585
2059,10.81001647
2060,10.75505091
2061,10.711588
2062,10.87970733
2063,10.81718882
2064,10.78203223
2065,10.78717302
2066,10.82853284
2067,10.80484381
2068,10.76814647
2069,10.80207012
2070,10.81985226
2071,10.7320474
2072,10.81408226
2073,10.84895229
2074,10.7742462
2075,10.74022243
2076,10.7998759
2077,10.80046614
2078,10.75616484
2079,10.83901915
2080,10.81105943
2081,10.79440542
2082,10.78026945
2083,10.8043221
2084,10.79117772
2085,10.82240077
2086,10.77618768
2087,10.75213567
2088,10.78621942
2089,10.89663411
2090,10.80776361
2091,10.75861716
2092,10.82442038
2093,10.80024779
2094,10.87687378
2095,10.78086958
2096,10.78647273
2097,10.7670197
2098,10.73647377
2099,10.82548023
2100,10.70111566
2101,10.78441662
2102,10.86316106
2103,10.83238663
2104,10.7599627
2105,10.87643045
2106,10.86081026
2107,10.74297348
2108,10.82047015
2109,10.72018879
2110,10.8376087
2111,10.842338
2112,10.81738547
2113,10.82531143
2114,10.73189059
2115,10.79451617
2116,10.82221431
2117,10.78045978
2118,10.93294151
2119,10.81412057
2120,10.79496514
2121,10.71390898
2122,10.76984457
2123,10.763391
2124,10.74225144
2125,10.82263911
2126,10.83547181
2127,10.82674067
2128,10.82839354
2129,10.77870426
2130,10.74134739
2131,10.81036299
2132,10.75278508
2133,10.84064422
2134,10.77119443
2135,10.77164131
2136,10.84621354
2137,10.80335812
2138,10.76983101
2139,10.78901437
2140,10.7693699
2141,10.81165336
2142,10.84805469
2143,10.84538378
2144,10.7773696
2145,10.84159182
2146,10.75096352
2147,10.77723644
2148,10.69306957
2149,10.7826421
2150,10.80363741
2151,10.78361212
2152,10.71653967
2153,10.78509216
2154,10.75426996
2155,10.74304494
2156,10.81862307
2157,10.82837751
2158,10.79544979
2159,10.80383771
2160,10.82923802
2161,10.80771778
2162,10.78244108
2163,10.89370912
2164,10.79769076
2165,10.81407143
2166,10.74634262
2167,10.80948458
2168,10.7325575
2169,10.76799199
2170,10.81681736
2171,10.75739476
2172,10.7987105
2173,10.79043874
2174,10.82194072
2175,10.85337947
2176,10.78533175
2177,10.7573461
2178,10.85475815
2179,10.77565316
2180,10.88308462
2181,10.72326202
2182,10.81221563
2183,10.87650009
2184,10.78961201
2185,10.8122693
2186,10.80472136
2187,10.76907653
2188,10.79161693
2189,10.75696848
2190,10.81621108
2191,10.80014611
2192,10.8425232
2193,10.83337975
2194,10.72346556
2195,10.79749199
2196,10.74989224
2197,10.82212172
2198,10.85095986
2199,10.76794658
2200,10.81312138
2201,10.73361787
2202,10.7291573
2203,10.77255775
2204,10.81249374
2205,10.77642183
2206,10.78390581
2207,10.8314592
2208,10.74878525
2209,10.74393755
2210,10.75196696
2211,10.70751356
2212,10.78906054
2213,10.78880066
2214,10.78831899
2215,10.83428365
2216,10.81102373
2217,10.76332215
2218,10.68436428
2219,10.80931036
2220,10.74321503
2221,10.86164874
2222,10.70412201
2223,10.74019739
2224,10.8371559
2225,10.79577041
2226,10.83631781
2227,10.78657475
2228,10.78159139
2229,10.78425535
2230,10.71069476
2231,10.80794004
2232,10.77137788
2233,10.82844136
2234,10.8275538
2235,10.78068656
2236,10.85319949
2237,10.76262284
2238,10.78103517
2239,10.75206087
2240,10.82562215
2241,10.82508032
2242,10.86957003
2243,10.82147939
2244,10.80180897
2245,10.77142648
2246,10.76807307
2247,10.77740461
2248,10.80419864
2249,10.80994161
2250,10.79935055
2251,10.8181211
2252,10.81602891
2253,10.83964289
2254,10.80377469
2255,10.83536896
2256,10.77973976
2257,10.81228677
2258,10.77279133
2259,10.80469174
2260,10.75705847
2261,10.83060976
2262,10.830633
2263,10.85545604
2264,10.75643776
2265,10.7973931
2266,10.75897015
2267,10.78799303
2268,10.77536636
2269,10.88998214
2270,10.82038769
2271,10.81344516
2272,10.74687556
2273,10.74612892
2274,10.80976464
2275,10.82799989
2276,10.78185065
2277,10.75088506
2278,10.85829452
2279,10.74979947
2280,10.87830156
2281,10.79387866
2282,10.8589576
2283,10.77223481
2284,10.74691421
2285,10.84227601
2286,10.80948262
2287,10.74195862
2288,10.77550262
2289,10.77128794
2290,10.83229604
2291,10.79519365
2292,10.80699492
2293,10.76215072
2294,10.80979148
2295,10.82877371
2296,10.81141968
2297,10.79896087
2298,10.804306
2299,10.79997092
2300,10.79903999
2301,10.78167398
2302,10.76251838
2303,10.8198779
2304,10.8627494
2305,10.81391471
2306,10.80737872
2307,10.76438458
2308,10.87383796
2309,10.84171865
2310,10.80640796
2311,10.78942031
2312,10.80202563
2313,10.84789043
2314,10.88972398
2315,10.81439589
2316,10.76629707
2317,10.85300611
2318,10.70949633
2319,10.83663149
2320,10.77578702
2321,10.81908435
2322,10.79608953
2323,10.79027053
2324,10.85881244
2325,10.82725925
2326,10.82467404
2327,10.86140411
2328,10.78745243
2329,10.76928127
2330,10.79389777
2331,10.83490309
2332,10.80961252
2333,10.75468023
2334,10.76193414
2335,10.77085095
2336,10.78797331
2337,10.76708475
2338,10.89957851
2339,10.75987735
2340,10.78871541
2341,10.80174064
2342,10.7373177
2343,10.79045533
2344,10.80642214
2345,10.82098732
2346,10.85031023
2347,10.77630912
2348,10.79417759
2349,10.75532008
2350,10.77622021
2351,10.78917078
2352,10.88156715
2353,10.84743241
2354,10.7724713
2355,10.83288022
2356,10.71557258
2357,10.84843399
2358,10.74212865
2359,10.81152143
2360,10.78200317
2361,10.78382557
2362,10.78495338
2363,10.83767681
2364,10.79440329
2365,10.76341151
2366,10.77876745
2367,10.8121558
2368,10.8530614
2369,10.78046462
2370,10.80301795
2371,10.72982675
2372,10.81801066
2373,10.69232223
2374,10.76008643
2375,10.79865966
2376,10.79064836
2377,10.82180745
2378,10.7425631
2379,10.78568187
2380,10.83131712
2381,10.81703993
2382,10.8545789
2383,10.84369328
2384,10.81300393
2385,10.83407733
2386,10.82374225
2387,10.83360337
2388,10.81237039
2389,10.84111052
2390,10.84189331
2391,10.80998099
2392,10.81336868
2393,10.79830202
2394,10.74865587
2395,10.81184278
2396,10.79475616
2397,10.86261291
2398,10.86578665
2399,10.82175569
2400,10.81503333
2401,10.75830349
2402,10.84640148
2403,10.81261961
2404,10.82242881
2405,10.76330934
2406,10.74194794
2407,10.82815399
2408,10.75604796
2409,10.8717384
2410,10.78810056
2411,10.82456485
2412,10.76757782
2413,10.82629503
2414,10.79122299
2415,10.82143875
2416,10.8057757
2417,10.77207549
2418,10.73200482
2419,10.82998446
2420,10.79576371
2421,10.82075825
2422,10.78869751
2423,10.76744312
2424,10.88289252
2425,10.73624605
2426,10.84562322
2427,10.75607108
2428,10.79687497
2429,10.77015469
2430,10.89271647
2431,10.8024327
2432,10.77287402
2433,10.73243242
2434,10.75057395
2435,10.79624552
2436,10.75933376
2437,10.79823318
2438,10.72011539
2439,10.83958232
2440,10.8712163
2441,10.79665492
2442,10.77762775
2443,10.75931305
2444,10.8109495
2445,10.76847213
2446,10.7919899
2447,10.84433041
2448,10.8320156
2449,10.84073699
2450,10.76067939
2451,10.74877395
2452,10.82417715
2453,10.79096006
2454,10.76118492
2455,10.79488568
2456,10.81372873
2457,10.75795458
2458,10.80987936
2459,10.80371711
2460,10.8440201
2461,10.80096679
2462,10.7474114
2463,10.69974351
2464,10.82495903
2465,10.80011834
2466,10.78523804
2467,10.77917362
2468,10.76065109
2469,10.7551569
2470,10.8450509
2471,10.80053752
2472,10.70066616
2473,10.82680538
2474,10.85347683
2475,10.75135677
2476,10.75574244
2477,10.75909718
2478,10.82723165
2479,10.83265032
2480,10.80630698
2481,10.81706511
2482,10.80807342
2483,10.82533505
2484,10.7648925
2485,10.7614541
2486,10.83330376
2487,10.76965191
2488,10.84801544
2489,10.86844013
2490,10.81678617
2491,10.77805111
2492,10.86336085
2493,10.8145051
2494,10.76132333
2495,10.80404494
2496,10.72991294
2497,10.77794313
2498,10.7307166
2499,10.76171469
2500,10.82905338
2501,10.78311701
2502,10.82997784
2503,10.79336697
2504,10.80566953
2505,10.73085994
2506,10.76539118
2507,10.82290693
2508,10.75348864
2509,10.76736876
2510,10.83404027
2511,10.76378808
2512,10.83942807
2513,10.81801056
2514,10.79473624
2515,10.81190513
2516,10.8647923
2517,10.75152498
2518,10.77555094
2519,10.82285581
2520,10.83552517
2521,10.80527607
2522,10.80980449
2523,10.79790978
2524,10.84389159
2525,10.84701623
2526,10.82628788
2527,10.76067463
2528,10.71407458
2529,10.80707802
2530,10.80738522
2531,10.75061857
2532,10.81593774
2533,10.80482924
2534,10.80821628
2535,10.83646969
2536,10.78469554
2537,10.77315627
2538,10.72522422
2539,10.79706919
2540,10.85442028
2541,10.84695331
2542,10.83146283
2543,10.82994496
2544,10.85295193
2545,10.81642236
2546,10.88775281
2547,10.80303661
2548,10.74249458
2549,10.75834037
2550,10.80522403
2551,10.80624069
2552,10.79544085
2553,10.86243688
2554,10.78472824
2555,10.76823568
2556,10.80685445
2557,10.79210298
2558,10.75384682
2559,10.6680575
2560,10.72112087
2561,10.8244036
2562,10.80091315
2563,10.8285377
2564,10.83161297
2565,10.77421632
2566,10.7923299
2567,10.74525458
2568,10.78041924
2569,10.78873287
2570,10.88394039
2571,10.85554108
2572,10.8045568
2573,10.85201576
2574,10.76025784
2575,10.81932772
2576,10.82493038
2577,10.71724876
2578,10.85028433
2579,10.79716597
2580,10.83086634
2581,10.80010826
2582,10.78057465
2583,10.84296724
2584,10.76099203
2585,10.85433078
2586,10.73023838
2587,10.75887627
2588,10.81576782
2589,10.89106834
2590,10.72726016
2591,10.79777431
2592,10.76878251
2593,10.80526694
2594,10.8187296
2595,10.83357932
2596,10.82712015
2597,10.75530934
2598,10.74921122
2599,10.71780453
2600,10.8110585
2601,10.8166569
2602,10.76868259
2603,10.77561973
2604,10.79165147
2605,10.77244536
2606,10.80756683
2607,10.76293832
2608,10.80438983
2609,10.75812616
2610,10.71327987
2611,10.78049307
2612,10.76265193
2613,10.80288294
2614,10.78130914
2615,10.79791945
2616,10.75163348
2617,10.82674538
2618,10.78164323
2619,10.72559097
2620,10.78940564
2621,10.84305441
2622,10.78665132
2623,10.79735844
2624,10.79174067
2625,10.86066322
2626,10.76631603
2627,10.78624669
2628,10.80142023
2629,10.79271535
2630,10.81882111
2631,10.80226792
2632,10.81774977
2633,10.79252653
2634,10.85302311
2635,10.77722019
2636,10.82162916
2637,10.79717779
2638,10.81520387
2639,10.7701935
2640,10.78014167
2641,10.7123076
2642,10.83700047
2643,10.7520947
2644,10.83650002
2645,10.8217489
2646,10.78750304
2647,10.7710127
2648,10.76789576
2649,10.83321085
2650,10.82889572
2651,10.76105642
2652,10.86971597
2653,10.80130492
2654,10.80753017
2655,10.75891344
2656,10.75427561
2657,10.83302479
2658,10.815253
2659,10.78341941
2660,10.83491083
2661,10.79438006
2662,10.69698448
2663,10.80268494
2664,10.77411885
2665,10.71466783
2666,10.75467232
2667,10.8221923
2668,10.8597356
2669,10.80743842
2670,10.71058985
2671,10.79220267
2672,10.80445362
2673,10.73276466
2674,10.71776104
2675,10.84379607
2676,10.82222895
2677,10.79559841
2678,10.81410632
2679,10.81750829
2680,10.8151492
2681,10.81663111
2682,10.8376059
2683,10.78158024
2684,10.814973
2685,10.86784059
2686,10.78224281
2687,10.76056137
2688,10.82642911
2689,10.83655109
2690,10.82531809
2691,10.77700119
2692,10.80338374
2693,10.76784431
2694,10.79198513
2695,10.7556943
2696,10.79346559
2697,10.72611525
2698,10.77299523
2699,10.80016937
2700,10.8107897
2701,10.87620492
2702,10.7704214
2703,10.84643753
2704,10.76829951
2705,10.80028269
2706,10.81150073
2707,10.85478824
2708,10.75741729
2709,10.74914001
2710,10.82011286
2711,10.84021465
2712,10.85007574
2713,10.74331981
2714,10.74509675
2715,10.78774388
2716,10.73008751
2717,10.80150122
2718,10.78434983
2719,10.81267602
2720,10.82097551
2721,10.86248734
2722,10.76144186
2723,10.7913989
2724,10.70861263
2725,10.75754242
2726,10.83785185
2727,10.83052268
2728,10.78941976
2729,10.81874283
2730,10.81918527
2731,10.80052402
2732,10.78603841
2733,10.75730572
2734,10.79098168
2735,10.80539833
2736,10.8019256
2737,10.79064724
2738,10.81663444
2739,10.79515083
2740,10.82770764
2741,10.72353831
2742,10.76813142
2743,10.81867679
2744,10.76953729
2745,10.80103912
2746,10.82875038
2747,10.79615652
2748,10.79180341
2749,10.79436165
2750,10.7982024
2751,10.79295023
2752,10.79923721
2753,10.74498901
2754,10.70419646
2755,10.79588181
2756,10.828934
2757,10.73153263
2758,10.86769878
2759,10.77531401
2760,10.82740951
2761,10.82801319
2762,10.78705119
2763,10.74062057
2764,10.7634119
2765,10.78432535
2766,10.80759658
2767,10.82004972
2768,10.78693181
2769,10.7910643
2770,10.83755456
2771,10.83298301
2772,10.83283527
2773,10.87167395
2774,10.83351556
2775,10.7991208
2776,10.7717151
2777,10.79745427
2778,10.78287277
2779,10.74601234
2780,10.76643903
2781,10.84698271
2782,10.79036247
2783,10.79133153
2784,10.77520362
2785,10.79325461
2786,10.81741474
2787,10.78616757
2788,10.75462923
2789,10.83648252
2790,10.85368819
2791,10.76519298
2792,10.83500148
2793,10.83398119
2794,10.83755424
2795,10.81159943
2796,10.81941057
2797,10.82279185
2798,10.81336386
2799,10.7453205
2800,10.78707596
2801,10.85985766
2802,10.77986737
2803,10.79841655
2804,10.76620233
2805,10.77537931
2806,10.78827345
2807,10.79653784
2808,10.88611379
2809,10.80909486
2810,10.78624285
2811,10.73562128
2812,10.79990447
2813,10.81125157
2814,10.82739556
2815,10.80667005
2816,10.760934
2817,10.8304446
2818,10.83361802
2819,10.77755848
2820,10.79815862
2821,10.80914047
2822,10.75973677
2823,10.78988998
2824,10.75233993
2825,10.75265607
2826,10.80474236
2827,10.82745134
2828,10.74661584
2829,10.71723019
2830,10.81882998
2831,10.77468651
2832,10.80374076
2833,10.86252759
2834,10.78993408
2835,10.80445364
2836,10.74011171
2837,10.87673265
2838,10.7860129
2839,10.77294374
2840,10.8559204
2841,10.75037843
2842,10.75946603
2843,10.83919538
2844,10.66651801
2845,10.78992388
2846,10.84998456
2847,10.86947408
2848,10.82163264
2849,10.79593375
2850,10.81302035
2851,10.84474254
2852,10.83607779
2853,10.80473145
2854,10.71634788
2855,10.76862699
2856,10.84276027
2857,10.79982487
2858,10.81118563
2859,10.8279905
2860,10.75690233
2861,10.83270062
2862,10.80947304
2863,10.79798257
2864,10.80346149
2865,10.79114837
2866,10.75450615
2867,10.70612427
2868,10.8168
2869,10.82543271
2870,10.77446669
2871,10.85226757
2872,10.79863039
2873,10.844465
2874,10.78817929
2875,10.7398571
2876,10.77771038
2877,10.77839898
2878,10.73459494
2879,10.78900648
2880,10.78422103
2881,10.74302653
2882,10.79355628
2883,10.76897047
2884,10.84297449
2885,10.72092825
2886,10.85037452
2887,10.87656549
2888,10.81608136
2889,10.80221321
2890,10.7191571
2891,10.83107943
2892,10.87673885
2893,10.78259232
2894,10.85251554
2895,10.76193965
2896,10.86652971
2897,10.89237372
2898,10.7826835
2899,10.78823885
2900,10.70725603
2901,10.787063
2902,10.82118902
2903,10.79340123
2904,10.80374074
2905,10.82531083
2906,10.84720324
2907,10.8342457
2908,10.79914747
2909,10.79070729
2910,10.76655418
2911,10.81360519
2912,10.83464685
2913,10.76703549
2914,10.72198719
2915,10.77913625
2916,10.81302319
2917,10.85441587
2918,10.83380151
2919,10.78070432
2920,10.818154
2921,10.75673823
2922,10.82220837
2923,10.77793795
2924,10.78626279
2925,10.81839983
2926,10.81126208
2927,10.79910039
2928,10.81706329
2929,10.83313109
2930,10.882289
2931,10.80496193
2932,10.80166893
2933,10.82068477
2934,10.79874954
2935,10.76068918
2936,10.7984077
2937,10.80377519
2938,10.7795243
2939,10.79843871
2940,10.78747129
2941,10.79920738
2942,10.8148304
2943,10.87763249
2944,10.85973505
2945,10.78508955
2946,10.81177519
2947,10.73843337
2948,10.84048307
2949,10.82127814
2950,10.78403054
2951,10.78642487
2952,10.80814607
2953,10.84370854
2954,10.85210244
2955,10.71081474
2956,10.74478115
2957,10.75796083
2958,10.82199744
2959,10.82331429
2960,10.77273249
2961,10.82949604
2962,10.82592575
2963,10.78363744
2964,10.82737368
2965,10.79749375
2966,10.80360637
2967,10.7506157
2968,10.75310197
2969,10.75987614
2970,10.84854882
2971,10.84400577
2972,10.79677462
2973,10.81298406
2974,10.7305766
2975,10.79707319
2976,10.72693338
2977,10.81853065
2978,10.8747968
2979,10.83254632
2980,10.79001062
2981,10.87836034
2982,10.80532479
2983,10.75798846
2984,10.74709451
2985,10.81434617
2986,10.83620767
2987,10.86631063
2988,10.73318802
2989,10.7751175
2990,10.77881272
2991,10.81615325
2992,10.83519574
2993,10.77422471
2994,10.76984101
2995,10.79814357
2996,10.80437798
2997,10.78685791
2998,10.79243378
2999,10.8649613
3000,10.77375743
3001,10.85052431
3002,10.79633647
3003,10.73434502
3004,10.83398418
3005,10.76813525
3006,10.76604873
3007,10.84373993
3008,10.82754657
3009,10.83722889
3010,10.82298524
3011,10.79392438
3012,10.72940374
3013,10.74544707
3014,10.85676895
3015,10.68191268
3016,10.85409217
3017,10.73392497
3018,10.80798386
3019,10.82559965
3020,10.77542206
3021,10.79217893
3022,10.82730543
3023,10.89796999
3024,10.84957591
3025,10.78894777
3026,10.81006487
3027,10.78387604
3028,10.75736885
3029,10.77039269
3030,10.77359933
3031,10.84773564
3032,10.82373877
3033,10.78767814
3034,10.82676354
3035,10.75567281
3036,10.7863228
3037,10.80566394
3038,10.72852236
3039,10.77576076
3040,10.81808976
3041,10.76162705
3042,10.79659034
3043,10.82530669
3044,10.77823434
3045,10.85596982
3046,10.77091122
3047,10.79534739
3048,10.84262077
3049,10.789563
3050,10.80991577
3051,10.78493634
3052,10.80668154
3053,10.79771629
3054,10.7467663
3055,10.90440503
3056,10.79384895
3057,10.76340143
3058,10.79577123
3059,10.78339763
3060,10.81708772
3061,10.75407947
3062,10.76881831
3063,10.76409616
3064,10.76862567
3065,10.7891704
3066,10.79919727
3067,10.80373874
3068,10.82766161
3069,10.77077517
3070,10.87213587
3071,10.79978154
3072,10.77103848
3073,10.78100668
3074,10.81091867
3075,10.76594275
3076,10.70042098
3077,10.75090517
3078,10.79508523
3079,10.78333417
3080,10.8152067
3081,10.76572328
3082,10.76471087
3083,10.85141736
3084,10.79326037
3085,10.79428411
3086,10.73303874
3087,10.77715019
3088,10.80255068
3089,10.84917853
3090,10.88321567
3091,10.83748311
3092,10.85414312
3093,10.86914835
3094,10.79596078
3095,10.76044307
3096,10.82309107
3097,10.81145896
3098,10.85778325
3099,10.8762482
3100,10.80475183
3101,10.75189951
3102,10.81212521
3103,10.75799804
3104,10.80299619
3105,10.78635278
3106,10.7367756
3107,10.7809471
3108,10.86365185
3109,10.784808
3110,10.76167906
3111,10.79274441
3112,10.80193017
3113,10.86832943
3114,10.76520513
3115,10.77921159
3116,10.71511493
3117,10.76237225
3118,10.82377024
3119,10.8782415
3120,10.83847001
3121,10.76880232
3122,10.76090375
3123,10.85196431
3124,10.78600182
3125,10.70530469
3126,10.82284564
3127,10.75346337
3128,10.78232453
3129,10.76331205
3130,10.7756579
3131,10.80368111
3132,10.75323856
3133,10.881003
3134,10.80844299
3135,10.74332057
3136,10.73563781
3137,10.86900551
3138,10.76471745
3139,10.81433185
3140,10.75065188
3141,10.7806699
3142,10.8446959
3143,10.78673632
3144,10.77190076
3145,10.78713489
3146,10.73407271
3147,10.81897208
3148,10.79087637
3149,10.79446598
3150,10.81966318
3151,10.79366913
3152,10.7490342
3153,10.83998521
3154,10.78727701
3155,10.77898604
3156,10.89719571
3157,10.82405469
3158,10.83333606
3159,10.81392249
3160,10.80634827
3161,10.78731108
3162,10.83343159
3163,10.77993952
3164,10.79074888
3165,10.78598995
3166,10.89137526
3167,10.8383258
3168,10.79182808
3169,10.82128814
3170,10.78891037
3171,10.89805683
3172,10.81827243
3173,10.76846807
3174,10.84173795
3175,10.76643982
3176,10.77711701
3177,10.78880526
3178,10.77263028
3179,10.83094563
3180,10.85099625
3181,10.81292807
3182,10.83666567
3183,10.86193857
3184,10.78360311
3185,10.82806276
3186,10.79138099
3187,10.79042443
3188,10.79233293
3189,10.78619435
3190,10.80527707
3191,10.77577427
3192,10.83934498
3193,10.84218516
3194,10.78123083
3195,10.77039946
3196,10.77809054
3197,10.83390531
3198,10.77066196
3199,10.80521953
3200,10.82972587
3201,10.75095642
3202,10.87292899
3203,10.81958454
3204,10.73901026
3205,10.76030324
3206,10.85048046
3207,10.92525134
3208,10.7494556
3209,10.815497
3210,10.77573553
3211,10.8202891
3212,10.88674181
3213,10.80956675
3214,10.75800512
3215,10.77526848
3216,10.81920961
3217,10.80221313
3218,10.76748792
3219,10.7224335
3220,10.77264816
3221,10.82095733
3222,10.8028462
3223,10.82232249
3224,10.77669646
3225,10.80409763
3226,10.77984255
3227,10.80848077
3228,10.72166982
3229,10.73898741
3230,10.86470685
3231,10.78869725
3232,10.79539032
3233,10.83224785
3234,10.82893314
3235,10.83958401
3236,10.86839134
3237,10.7994723
3238,10.76347885
3239,10.76028236
3240,10.8288007
3241,10.76841325
3242,10.8325231
3243,10.87559918
3244,10.84637337
3245,10.80684166
3246,10.8124844
3247,10.77434885
3248,10.81071352
3249,10.79921318
3250,10.73749842
3251,10.81552185
3252,10.79832062
3253,10.81398786
3254,10.80029778
3255,10.78770458
3256,10.73666395
3257,10.7833488
3258,10.83989745
3259,10.80381928
3260,10.73454243
3261,10.8001773
3262,10.8844339
3263,10.77208838
3264,10.79313137
3265,10.78147117
3266,10.74796528
3267,10.82606264
3268,10.7765884
3269,10.80739771
3270,10.82530804
3271,10.72568574
3272,10.84605309
3273,10.77891248
3274,10.78839653
3275,10.78355751
3276,10.83876915
3277,10.76408101
3278,10.81060402
3279,10.77680011
3280,10.80446525
3281,10.76661432
3282,10.77883433
3283,10.75309041
3284,10.82991526
3285,10.72123877
3286,10.74221686
3287,10.81928896
3288,10.81433191
3289,10.78818098
3290,10.8162762
3291,10.80357371
3292,10.77538397
3293,10.80082492
3294,10.7490451
3295,10.79904962
3296,10.83503336
3297,10.72475352
3298,10.82320685
3299,10.78950141
3300,10.7584645
3301,10.82544971
3302,10.80357936
3303,10.7750318
3304,10.82047622
3305,10.92243056
3306,10.8092394
3307,10.79436904
3308,10.75645943
3309,10.85127685
3310,10.81633679
3311,10.74658579
3312,10.8464513
3313,10.8485319
3314,10.93347802
3315,10.80941099
3316,10.8006934
3317,10.7670831
3318,10.83654795
3319,10.83794886
3320,10.81097947
3321,10.79769153
3322,10.8495109
3323,10.79903095
3324,10.7999881
3325,10.79328338
3326,10.79036623
3327,10.72140534
3328,10.7940919
3329,10.85331455
3330,10.75893287
3331,10.81117845
3332,10.77981462
3333,10.84436186
3334,10.79840294
3335,10.87464353
3336,10.7983977
3337,10.79834808
3338,10.77831983
3339,10.78119898
3340,10.83701055
3341,10.74753447
3342,10.79070519
3343,10.86513823
3344,10.87172115
3345,10.80677195
3346,10.77996348
3347,10.7696416
3348,10.82975611
3349,10.80072482
3350,10.78274164
3351,10.81840818
3352,10.76185996
3353,10.75611825
3354,10.75863769
3355,10.78787431
3356,10.82072494
3357,10.82639696
3358,10.80244295
3359,10.76813325
3360,10.84877167
3361,10.74813067
3362,10.8220668
3363,10.73845855
3364,10.77973613
3365,10.79489333
3366,10.87151897
3367,10.74339035
3368,10.82458018
3369,10.75855872
3370,10.7710356
3371,10.82914103
3372,10.74510144
3373,10.76905087
3374,10.79761865
3375,10.79993957
3376,10.85701467
3377,10.72055374
3378,10.86925618
3379,10.76579255
3380,10.77675325
3381,10.75844629
3382,10.74785774
3383,10.8391343
3384,10.83017085
3385,10.765294
3386,10.76322359
3387,10.82034704
3388,10.81035887
3389,10.75717077
3390,10.77702601
3391,10.82417652
3392,10.82536743
3393,10.80674849
3394,10.77830084
3395,10.81106347
3396,10.80805489
3397,10.858487
3398,10.7746726
3399,10.73820016
3400,10.77538276
3401,10.75871425
3402,10.80069291
3403,10.83270531
3404,10.79231287
3405,10.8448909
3406,10.79803091
3407,10.83568916
3408,10.77518738
3409,10.74953784
3410,10.79163735
3411,10.77541097
3412,10.82968377
3413,10.79529923
3414,10.78128524
3415,10.80255904
3416,10.85198644
3417,10.86269067
3418,10.80202273
3419,10.80761789
3420,10.82172042
3421,10.70485859
3422,10.77886663
3423,10.80488692
3424,10.77522313
3425,10.78036522
3426,10.80815911
3427,10.74527189
3428,10.83898537
3429,10.83327782
3430,10.81932754
3431,10.82051271
3432,10.79385332
3433,10.78291077
3434,10.74905943
3435,10.78201882
3436,10.75768821
3437,10.88701691
3438,10.77408968
3439,10.84819659
3440,10.82615794
3441,10.79554949
3442,10.80461097
3443,10.75857298
3444,10.86994925
3445,10.76670763
3446,10.84270448
3447,10.82927647
3448,10.80140108
3449,10.86709057
3450,10.81330323
3451,10.74650391
3452,10.84912483
3453,10.80972817
3454,10.80805947
3455,10.78099382
3456,10.79429227
3457,10.90192722
3458,10.84412558
3459,10.80065201
3460,10.72906432
3461,10.81834422
3462,10.74440697
3463,10.85535402
3464,10.78638109
3465,10.80003083
3466,10.80596405
3467,10.8571426
3468,10.78402074
3469,10.80682254
3470,10.79594204
3471,10.71270752
3472,10.78522987
3473,10.81051874
3474,10.78177791
3475,10.81236733
3476,10.80959968
3477,10.79983404
3478,10.86154501
3479,10.82771086
3480,10.81869891
3481,10.75798729
3482,10.85499423
3483,10.83114281
3484,10.82891653
3485,10.84302005
3486,10.82427016
3487,10.76777576
3488,10.76760166
3489,10.80687883
3490,10.85943569
3491,10.76651238
3492,10.73142798
3493,10.80844133
3494,10.84441667
3495,10.77327126
3496,10.78357346
3497,10.73299767
3498,10.68402207
3499,10.76577996
3500,10.90993628
3501,10.81089386
3502,10.87865035
3503,10.76434108
3504,10.77474267
3505,10.81125397
3506,10.79279726
3507,10.74977379
3508,10.83629707
3509,10.8708916
3510,10.77524655
3511,10.79473528
3512,10.80862917
3513,10.82243959
3514,10.77543763
3515,10.76660957
3516,10.83883141
3517,10.81888382
3518,10.77241652
3519,10.82407131
3520,10.82016997
3521,10.82276384
3522,10.82744894
3523,10.76229597
3524,10.85003777
3525,10.8064291
3526,10.87075309
3527,10.75598664
3528,10.81658707
3529,10.74874271
3530,10.77404981
3531,10.78619576
3532,10.78211884
3533,10.80907575
3534,10.78728453
3535,10.75337687
3536,10.81067186
3537,10.7952818
3538,10.8111496
3539,10.78368753
3540,10.85817375
3541,10.7626986
3542,10.81369846
3543,10.75617722
3544,10.78923701
3545,10.8056447
3546,10.78000804
3547,10.78403693
3548,10.76136723
3549,10.8060884
3550,10.82794993
3551,10.77576129
3552,10.67877448
3553,10.81441983
3554,10.85244094
3555,10.79778494
3556,10.80565794
3557,10.82768625
3558,10.86401261
3559,10.78958841
3560,10.75458396
3561,10.82008071
3562,10.89644373
3563,10.78371458
3564,10.75497465
3565,10.83562347
3566,10.81572989
3567,10.79740988
3568,10.7397954
3569,10.80610499
3570,10.82599931
3571,10.69270928
3572,10.861507
3573,10.8102088
3574,10.77312557
3575,10.81481874
3576,10.92619631
3577,10.7964393
3578,10.76917193
3579,10.80333675
3580,10.76546199
3581,10.78489537
3582,10.79005034
3583,10.83840485
3584,10.80576925
3585,10.8639162
3586,10.8745163
3587,10.7801972
3588,10.82985477
3589,10.82542131
3590,10.68892344
3591,10.82166236
3592,10.78204289
3593,10.75834632
3594,10.77339148
3595,10.76008313
3596,10.84564937
3597,10.8133674
3598,10.84422895
3599,10.8442819
3600,10.77493401
3601,10.81268573
3602,10.81315746
3603,10.77541774
3604,10.76787914
3605,10.73833522
3606,10.76003312
3607,10.79295571
3608,10.79102542
3609,10.75607252
3610,10.81747643
3611,10.79468282
3612,10.81883247
3613,10.81360306
3614,10.85039376
3615,10.8550943
3616,10.81048173
3617,10.80413315
3618,10.79349529
3619,10.83565037
3620,10.77105435
3621,10.77083683
3622,10.77966336
3623,10.7696925
3624,10.83410213
3625,10.84498557
3626,10.77302979
3627,10.76518605
3628,10.78871996
3629,10.80581791
3630,10.77948115
3631,10.81343757
3632,10.84607848
3633,10.84929744
3634,10.79329125
3635,10.79734648
3636,10.88667775
3637,10.79590859
3638,10.83589772
3639,10.82448333
3640,10.76161809
3641,10.76374663
3642,10.78488316
3643,10.83436138
3644,10.8589935
3645,10.84476899
3646,10.76738712
3647,10.80684304
3648,10.80173382
3649,10.73754367
3650,10.76898496
3651,10.81173028
3652,10.74321797
3653,10.77895026
3654,10.78477011
3655,10.78123897
3656,10.80435561
3657,10.78723781
3658,10.80474687
3659,10.77912744
3660,10.84202987
3661,10.79182531
3662,10.8414974
3663,10.77668379
3664,10.76407246
3665,10.84363506
3666,10.777019
3667,10.83249512
3668,10.80089632
3669,10.76243852
3670,10.86238151
3671,10.77583484
3672,10.810845
3673,10.79738568
3674,10.83958608
3675,10.78952972
3676,10.80360178
3677,10.76845117
3678,10.77492423
3679,10.80147858
3680,10.85146538
3681,10.7337441
3682,10.88620194
3683,10.68673111
3684,10.81313615
3685,10.79167923
3686,10.80092237
3687,10.82061611
3688,10.73639765
3689,10.76361097
3690,10.85703644
3691,10.82315747
3692,10.78157941
3693,10.78857492
3694,10.74879133
3695,10.76909635
3696,10.78028522
3697,10.77302761
3698,10.83474441
3699,10.7504791
3700,10.79214656
3701,10.76449232
3702,10.82808369
3703,10.79935579
3704,10.83655839
3705,10.84620093
3706,10.77972026
3707,10.82049206
3708,10.81040151
3709,10.83247973
3710,10.90970802
3711,10.81496231
3712,10.83184914
3713,10.76108343
3714,10.74567942
3715,10.88506236
3716,10.85215788
3717,10.79199838
3718,10.83245507
3719,10.72220748
3720,10.89595544
3721,10.82454616
3722,10.75681387
3723,10.78209112
3724,10.78775729
3725,10.80342189
3726,10.76969265
3727,10.80490899
3728,10.78952633
3729,10.76504966
3730,10.86185979
3731,10.80878052
3732,10.77518139
3733,10.88772414
3734,10.74690828
3735,10.785377
3736,10.83667476
3737,10.82930989
3738,10.77026734
3739,10.82037408
3740,10.78477048
3741,10.74818861
3742,10.82089764
3743,10.80005659
3744,10.85292021
3745,10.83653052
3746,10.75343008
3747,10.79114822
3748,10.79432028
3749,10.81910517
3750,10.73674687
3751,10.79722412
3752,10.80285035
3753,10.77230914
3754,10.84171561
3755,10.75353073
3756,10.75165622
3757,10.77721653
3758,10.83101392
3759,10.77397492
3760,10.7996057
3761,10.79493836
3762,10.90764017
3763,10.85744189
3764,10.80868388
3765,10.83642789
3766,10.79819406
3767,10.85423163
3768,10.76300866
3769,10.72831579
3770,10.76879643
3771,10.81773576
3772,10.85297581
3773,10.84825422
3774,10.74816081
3775,10.86572999
3776,10.77573288
3777,10.75983402
3778,10.88133025
3779,10.87315469
3780,10.72762517
3781,10.8260933
3782,10.8753954
3783,10.83660922
3784,10.78641434
3785,10.82306341
3786,10.75581407
3787,10.76346194
3788,10.82518576
3789,10.76471019
3790,10.84171394
3791,10.80791949
3792,10.82153732
3793,10.84154215
3794,10.74724222
3795,10.71939825
3796,10.75838803
3797,10.80608689
3798,10.81133236
3799,10.7538196
3800,10.74108995
3801,10.75449553
3802,10.7639011
3803,10.82346713
3804,10.79072598
3805,10.83602446
3806,10.84555581
3807,10.73763922
3808,10.73113553
3809,10.79129044
3810,10.81868935
3811,10.71614649
3812,10.75669705
3813,10.75152423
3814,10.76793789
3815,10.81047195
3816,10.74442714
3817,10.859981
3818,10.83576027
3819,10.75381301
3820,10.798333
3821,10.78126531
3822,10.82459221
3823,10.88099448
3824,10.81791534
3825,10.81469162
3826,10.84847948
3827,10.81576246
3828,10.83213509
3829,10.79360707
3830,10.80870861
3831,10.76577904
3832,10.7630134
3833,10.73729979
3834,10.87700101
3835,10.77626932
3836,10.87699384
3837,10.80683909
3838,10.75874537
3839,10.69342065
3840,10.78900534
3841,10.75843232
3842,10.75273638
3843,10.80278892
3844,10.89134483
3845,10.79413604
3846,10.79830537
3847,10.78442997
3848,10.76958664
3849,10.67913248
3850,10.87986881
3851,10.7704829
3852,10.90538744
3853,10.75671019
3854,10.84238079
3855,10.82868638
3856,10.77023148
3857,10.75250251
3858,10.83411012
3859,10.7517465
3860,10.84818966
3861,10.7708878
3862,10.83538947
3863,10.88225654
3864,10.80782472
3865,10.79639608
3866,10.76689926
3867,10.76389675
3868,10.82941236
3869,10.79996773
3870,10.84164428
3871,10.79776023
3872,10.72560336
3873,10.84465602
3874,10.83294874
3875,10.84528834
3876,10.77804783
3877,10.80492607
3878,10.77735266
3879,10.82886468
3880,10.79944759
3881,10.78247918
3882,10.79699802
3883,10.81571118
3884,10.76972352
3885,10.79554407
3886,10.79698836
3887,10.77669472
3888,10.80551494
3889,10.7606052
3890,10.77635618
3891,10.79395134
3892,10.86178431
3893,10.80554188
3894,10.80189564
3895,10.7574291
3896,10.80467301
3897,10.78408912
3898,10.80612829
3899,10.83633554
3900,10.79462104
3901,10.78196212
3902,10.74003717
3903,10.81784633
3904,10.7780315
3905,10.80282798
3906,10.78116418
3907,10.81968827
3908,10.82917138
3909,10.82744962
3910,10.76903346
3911,10.8669358
3912,10.71026762
3913,10.83290354
3914,10.78011366
3915,10.74661486
3916,10.80586114
3917,10.78780723
3918,10.86360979
3919,10.81534941
3920,10.83382591
3921,10.80750405
3922,10.78113348
3923,10.71956404
3924,10.74606492
3925,10.85280412
3926,10.74738929
3927,10.77431142
3928,10.80505169
3929,10.79146753
3930,10.83685981
3931,10.84966518
3932,10.71249414
3933,10.82408566
3934,10.82233221
3935,10.75490556
3936,10.76003362
3937,10.81556718
3938,10.78403534
3939,10.76265615
3940,10.77679383
3941,10.76649456
3942,10.8189835
3943,10.83007684
3944,10.77020529
3945,10.89260839
3946,10.85784084
3947,10.79843723
3948,10.80179689
3949,10.77646345
3950,10.77052354
3951,10.82322767
3952,10.78049497
3953,10.82922618
3954,10.79783254
3955,10.79466484
3956,10.77027642
3957,10.78291262
3958,10.81066604
3959,10.78985595
3960,10.80073807
3961,10.7634794
3962,10.80793565
3963,10.80244714
3964,10.83746505
3965,10.84235592
3966,10.80224069
3967,10.8021315
3968,10.76460354
3969,10.74636096
3970,10.80004023
3971,10.77269352
3972,10.83250161
3973,10.761653
3974,10.74776887
3975,10.77973676
3976,10.76318141
3977,10.79772338
3978,10.79456039
3979,10.82096995
3980,10.7975449
3981,10.77299879
3982,10.84056098
3983,10.83116162
3984,10.78823692
3985,10.85554595
3986,10.75057774
3987,10.7531635
3988,10.83546175
3989,10.80151068
3990,10.80299582
3991,10.79211068
3992,10.7287165
3993,10.78364208
3994,10.84454352
3995,10.85615457
3996,10.7971673
3997,10.77099043
3998,10.776446
3999,10.83812107
4000,10.7979406
