Raman Shift,Intensity
91.55994,1382.08
92.04205,1401.274
92.52417,1428.968
93.00629,1458.87
93.4884,1481.056
93.97052,1485.848
94.45264,1469.718
94.93475,1452.05
95.41687,1434.23
95.89898,1416.795
96.3811,1400.534
96.86321,1386.341
97.34533,1373.628
97.82745,1359.201
98.30956,1345.235
98.79168,1331.721
99.2738,1319.052
99.75591,1306.95
100.238,1295.314
100.7201,1284.387
101.2023,1274.237
101.6844,1264.871
102.1665,1256.006
102.6486,1247.362
103.1307,1239.129
103.6128,1231.491
104.095,1224.336
104.5771,1217.722
105.0592,1211.169
105.5413,1204.816
106.0234,1199.134
106.5055,1194.518
106.9877,1190.682
107.4698,1186.657
107.9519,1183.031
108.434,1178.185
108.9161,1171.255
109.3982,1162.594
109.8804,1153.121
110.3625,1143.209
110.8446,1132.404
111.3267,1123.748
111.8088,1118.306
112.2909,1113.875
112.7731,1109.653
113.2552,1105.439
113.7373,1101.309
114.2194,1097.391
114.7015,1093.384
115.1836,1090.209
115.6658,1089.154
116.1479,1088.307
116.63,1085.51
117.1121,1079.904
117.5942,1072.805
118.0763,1067.398
118.5584,1064.232
119.0406,1061.107
119.5227,1057.106
120.0048,1052.614
120.4869,1048.695
120.969,1045.934
121.4511,1044.028
121.9333,1042.135
122.4154,1040.245
122.8975,1038.367
123.3796,1036.577
123.8617,1034.887
124.3438,1033.079
124.826,1031.364
125.3081,1029.357
125.7902,1026.465
126.2723,1022.203
126.7544,1017.323
127.2365,1013.612
127.7187,1011.598
128.2008,1009.966
128.6829,1008.721
129.165,1007.461
129.6471,1005.606
130.1292,1002.686
130.6114,998.8099
131.0935,995.5115
131.5756,993.2154
132.0577,991.1249
132.5398,989.4868
133.0219,987.9679
133.5041,985.8485
133.9862,982.3685
134.4683,977.1395
134.9504,973.1125
135.4325,970.674
135.9146,968.849
136.3968,967.226
136.8789,965.7117
137.361,964.2751
137.8431,962.8861
138.3252,961.5218
138.8073,960.3578
139.2895,959.5353
139.7716,958.8604
140.2537,958.3174
140.7358,958.0563
141.2179,957.3241
141.7,954.7525
142.1821,950.5297
142.6643,946.4152
143.1464,943.0358
143.6285,940.3229
144.1106,938.0455
144.5927,936.3724
145.0748,934.9155
145.557,933.2485
146.0391,931.3733
146.5212,929.5914
147.0033,928.2094
147.4854,927.2667
147.9675,926.3157
148.4497,925.3797
148.9318,924.3273
149.4139,923.04
149.896,921.5056
150.3781,919.8348
150.8602,918.1127
151.3424,915.9915
151.8245,914.6213
152.3066,914.6709
152.7887,915.0377
153.2708,914.7598
153.7529,913.4965
154.2351,911.7209
154.7172,910.626
155.1993,911.1813
155.6814,911.3026
156.1635,910.5939
156.6456,909.49
157.1278,908.609
157.6099,908.2881
158.092,908.2587
158.5741,907.3274
159.0562,904.4437
159.5383,901.9587
160.0205,900.5117
160.5026,899.894
160.9847,899.6395
161.4668,899.5331
161.9489,899.5745
162.431,899.7206
162.9131,900.5125
163.3953,900.9099
163.8774,899.9959
164.3595,897.9037
164.8416,895.9537
165.3237,894.9977
165.8058,894.7782
166.288,894.614
166.7701,894.4644
167.2522,894.3205
167.7343,894.2374
168.2164,894.2708
168.6985,894.1009
169.1807,893.2206
169.6628,892.0961
170.1449,891.3232
170.627,891.2494
171.1091,891.5919
171.5912,891.7726
172.0734,891.9587
172.5555,891.6114
173.0376,890.1064
173.5197,888.1113
174.0018,886.5839
174.4839,886.161
174.9661,886.6639
175.4482,887.0228
175.9303,887.3576
176.4124,887.3756
176.8945,886.7136
177.3766,885.7058
177.8588,884.9186
178.3409,884.774
178.823,885.2772
179.3051,885.8492
179.7872,886.6956
180.2693,887.4069
180.7515,887.7748
181.2336,887.8818
181.7157,887.9501
182.1978,888.169
182.6799,888.5549
183.162,888.8974
183.6441,889.5194
184.1263,889.8301
184.6084,889.3057
185.0905,888.0726
185.5726,886.8129
186.0547,886.1437
186.5368,886.1605
187.019,886.3269
187.5011,887.0185
187.9832,887.598
188.4653,887.5001
188.9474,886.6863
189.4296,885.6814
189.9117,884.987
190.3938,884.5994
190.8759,884.1187
191.358,882.9069
191.8401,881.8605
192.3223,882.4927
192.8044,885.3392
193.2865,887.9342
193.7686,886.9119
194.2507,883.4166
194.7328,880.9482
195.215,881.2744
195.6971,883.2225
196.1792,884.5019
196.6613,884.8016
197.1434,884.687
197.6255,884.6834
198.1077,884.6577
198.5898,884.2125
199.0719,882.649
199.554,880.3652
200.0361,879.1447
200.5182,879.507
201.0004,880.3553
201.4825,881.1747
201.9646,881.9581
202.4467,882.7031
202.9288,883.4064
203.4109,884.0724
203.893,884.7279
204.3752,885.537
204.8573,886.15
205.3394,886.3809
205.8215,886.309
206.3036,886.1121
206.7857,885.8507
207.2679,885.4995
207.75,885.603
208.2321,886.5555
208.7142,887.632
209.1963,888.914
209.6784,890.1737
210.1606,890.9149
210.6427,890.5733
211.1248,888.9468
211.6069,888.0511
212.089,887.9484
212.5711,888.4216
213.0533,889.8434
213.5354,891.8841
214.0175,893.6859
214.4996,894.4138
214.9817,893.8695
215.4638,893.6025
215.946,893.5037
216.4281,893.7013
216.9102,894.5234
217.3923,895.8078
217.8744,896.9056
218.3565,897.1477
218.8387,896.3813
219.3208,896.1882
219.8029,896.9146
220.285,897.8535
220.7671,898.5569
221.2492,899.0235
221.7314,899.555
222.2135,900.438
222.6956,901.6995
223.1777,902.8277
223.6598,903.7393
224.1419,904.5812
224.624,905.6321
225.1062,906.8708
225.5883,907.6658
226.0704,907.1677
226.5525,905.6268
227.0346,905.0451
227.5167,906.3119
227.9989,908.1133
228.481,909.3714
228.9631,910.0355
229.4452,910.1995
229.9273,909.3942
230.4094,908.1385
230.8916,907.8796
231.3737,909.7584
231.8558,912.2413
232.3379,913.5058
232.82,913.3988
233.3021,913.1356
233.7843,913.377
234.2664,913.9825
234.7485,914.8138
235.2306,916.0474
235.7127,917.3126
236.1948,917.9955
236.677,917.9264
237.1591,917.9979
237.6412,918.6119
238.1233,919.6465
238.6054,921.1981
239.0875,923.6897
239.5697,926.1403
240.0518,926.5721
240.5339,924.1188
241.016,922.4515
241.4981,923.5062
241.9802,925.7825
242.4624,928.0381
242.9445,929.8909
243.4266,931.4113
243.9087,932.6672
244.3908,933.5518
244.8729,934.4445
245.355,935.4612
245.8372,936.5165
246.3193,937.4999
246.8014,938.3652
247.2835,939.2513
247.7656,940.5018
248.2477,942.4308
248.7299,943.9367
249.212,944.5722
249.6941,944.9154
250.1762,945.3392
250.6583,945.9689
251.1404,946.7917
251.6226,947.841
252.1047,949.2947
252.5868,950.564
253.0689,951.6191
253.551,952.5002
254.0331,953.1344
254.5153,953.5429
254.9974,953.9667
255.4795,954.8019
255.9616,956.2641
256.4437,957.6971
256.9258,959.4504
257.408,960.9327
257.8901,961.6359
258.3722,961.5311
258.8543,961.0899
259.3364,960.9103
259.8185,960.9754
260.3007,961.3953
260.7828,962.7536
261.2649,963.9514
261.747,964.0127
262.2291,963.0135
262.7112,962.0032
263.1934,962.2557
263.6755,964.28
264.1576,965.7295
264.6397,966.3269
265.1218,966.6974
265.6039,967.0236
266.0861,967.4036
266.5682,967.9983
267.0503,969.001
267.5324,970.5006
268.0145,971.8256
268.4966,972.7969
268.9788,973.7919
269.4609,975.0914
269.943,976.6111
270.4251,978.0016
270.9072,978.9462
271.3893,979.416
271.8715,980.1462
272.3536,980.7922
272.8357,981.9578
273.3178,984.0854
273.7999,986.9703
274.282,990.1399
274.7642,993.3847
275.2463,996.632
275.7284,998.8381
276.2105,999.3987
276.6926,999.8504
277.1747,1000.296
277.6568,1001.015
278.1389,1002.729
278.6211,1006.011
279.1032,1010.326
279.5853,1013.341
280.0674,1013.747
280.5495,1014.677
281.0316,1017.447
281.5138,1021.207
281.9959,1024.311
282.478,1025.942
282.9601,1026.882
283.4422,1029.233
283.9243,1034.057
284.4065,1038.102
284.8886,1040.088
285.3707,1041.067
285.8528,1042.588
286.3349,1045.186
286.817,1048.328
287.2992,1051.12
287.7813,1053.354
288.2634,1055.933
288.7455,1059.577
289.2276,1063.395
289.7097,1066.079
290.1919,1067.298
290.674,1068.146
291.1561,1070.029
291.6382,1073.1
292.1203,1075.976
292.6024,1078.26
293.0846,1080.437
293.5667,1083.128
294.0488,1086.408
294.5309,1089.574
295.013,1092.014
295.4951,1093.669
295.9773,1094.963
296.4594,1095.136
296.9415,1095.501
297.4236,1097.399
297.9057,1100.728
298.3878,1104.044
298.87,1106.516
299.3521,1108.027
299.8342,1108.683
300.3163,1107.618
300.7984,1106.495
301.2805,1106.334
301.7627,1106.984
302.2448,1107.684
302.7269,1107.989
303.209,1108.13
303.6911,1108.806
304.1732,1110.36
304.6554,1111.85
305.1375,1113.164
305.6196,1114.126
306.1017,1114.128
306.5838,1112.728
307.0659,1110.67
307.5481,1109.366
308.0302,1108.839
308.5123,1108.663
308.9944,1108.72
309.4765,1109.037
309.9586,1109.81
310.4408,1111.189
310.9229,1112.574
311.405,1113.014
311.8871,1112.489
312.3692,1112.11
312.8513,1112.589
313.3335,1113.09
313.8156,1112.289
314.2977,1109.939
314.7798,1107.677
315.2619,1107.235
315.744,1108.482
316.2262,1109.094
316.7083,1108.362
317.1904,1107.295
317.6725,1106.714
318.1546,1106.624
318.6367,1106.625
319.1188,1106.498
319.601,1106.235
320.0831,1105.864
320.5652,1105.088
321.0473,1104.501
321.5294,1104.644
322.0115,1105.306
322.4937,1105.755
322.9758,1105.667
323.4579,1105.13
323.94,1104.343
324.4221,1103.162
324.9042,1102.086
325.3864,1101.336
325.8685,1100.806
326.3506,1100.244
326.8327,1099.531
327.3148,1098.911
327.7969,1098.863
328.2791,1099.488
328.7612,1099.975
329.2433,1100.081
329.7254,1100.022
330.2075,1100.086
330.6896,1100.323
331.1718,1100.499
331.6539,1100.359
332.136,1099.872
332.6181,1099.385
333.1002,1098.805
333.5823,1098.307
334.0645,1098.011
334.5466,1097.918
335.0287,1097.969
335.5108,1098.109
335.9929,1098.363
336.475,1098.837
336.9572,1100.121
337.4393,1100.985
337.9214,1100.51
338.4035,1099.201
338.8856,1098.325
339.3677,1098.531
339.8499,1099.374
340.332,1099.66
340.8141,1099.19
341.2962,1098.619
341.7783,1097.938
342.2604,1097.269
342.7426,1096.749
343.2247,1096.421
343.7068,1096.322
344.1889,1096.602
344.671,1097.648
345.1531,1097.82
345.6353,1096.411
346.1174,1094.614
346.5995,1093.281
347.0816,1092.507
347.5637,1091.983
348.0458,1091.476
348.528,1090.988
349.0101,1090.446
349.4922,1090.073
349.9743,1089.448
350.4564,1088.307
350.9385,1086.779
351.4207,1085.177
351.9028,1083.703
352.3849,1082.275
352.867,1080.494
353.3491,1077.352
353.8312,1075.115
354.3134,1074.676
354.7955,1075.044
355.2776,1075.276
355.7597,1075.009
356.2418,1074.062
356.7239,1072.02
357.2061,1067.813
357.6882,1064.709
358.1703,1063.625
358.6524,1062.84
359.1345,1061.189
359.6166,1058.584
360.0987,1055.618
360.5808,1052.796
361.063,1050.083
361.5451,1047.837
362.0272,1046.713
362.5093,1045.349
362.9914,1043.339
363.4735,1040.741
363.9557,1037.629
364.4378,1033.966
364.9199,1030.054
365.402,1027.246
365.8841,1027.064
366.3662,1025.897
366.8484,1022.741
367.3305,1018.77
367.8126,1015.136
368.2947,1012.219
368.7768,1009.552
369.2589,1006.336
369.7411,1002.241
370.2232,998.5174
370.7053,995.1331
371.1874,992.1468
371.6695,989.8602
372.1516,988.0871
372.6338,986.1271
373.1159,983.389
373.598,979.8912
374.0801,976.0519
374.5622,971.6185
375.0443,967.1132
375.5265,962.4174
376.0086,957.8205
376.4907,953.8604
376.9728,950.8707
377.4549,948.423
377.937,945.5699
378.4192,942.2312
378.9013,938.7065
379.3834,934.9623
379.8655,931.1373
380.3476,927.2729
380.8297,923.3836
381.3119,919.6262
381.794,916.1411
382.2761,912.924
382.7582,910.0654
383.2403,907.8125
383.7224,905.6624
384.2046,903.3613
384.6867,900.8963
385.1688,898.1664
385.6509,895.0956
386.133,891.75
386.6151,888.1306
387.0973,884.09
387.5794,880.3318
388.0615,877.282
388.5436,874.7535
389.0257,872.6363
389.5078,871.2389
389.99,869.6352
390.4721,866.6804
390.9542,862.5711
391.4363,859.0473
391.9184,856.9668
392.4005,855.3538
392.8827,852.6606
393.3648,848.776
393.8469,845.392
394.329,843.6527
394.8111,842.6817
395.2932,841.0671
395.7754,838.5572
396.2575,835.8536
396.7396,833.5135
397.2217,831.5323
397.7038,829.5994
398.1859,827.6961
398.6681,825.8259
399.1501,824.0928
399.6323,822.415
400.1144,820.4462
400.5965,817.9314
401.0786,815.1425
401.5607,812.9374
402.0428,811.571
402.525,810.2191
403.0071,808.6733
403.4892,807.0916
403.9713,805.7726
404.4534,804.7576
404.9355,803.6364
405.4177,801.8971
405.8998,799.3979
406.3819,797.0023
406.864,794.1922
407.3461,791.9639
407.8282,791.2917
408.3104,791.6262
408.7925,791.6327
409.2746,790.4785
409.7567,788.3254
410.2388,785.8962
410.7209,782.7943
411.2031,779.9357
411.6852,777.3408
412.1673,775.0441
412.6494,773.1241
413.1315,771.5774
413.6136,770.2446
414.0958,768.9409
414.5779,767.678
415.06,766.3751
415.5421,765.3946
416.0242,764.0358
416.5063,761.776
416.9885,758.8917
417.4706,756.0717
417.9527,753.709
418.4348,751.7532
418.9169,750.0686
419.399,748.9106
419.8812,747.4711
420.3633,745.1989
420.8454,742.7218
421.3275,740.776
421.8096,739.562
422.2917,738.2084
422.7739,735.5306
423.256,731.6204
423.7381,728.3962
424.2202,726.4266
424.7023,724.8283
425.1844,722.9394
425.6666,720.8206
426.1487,718.6774
426.6308,716.8445
427.1129,714.9179
427.595,712.072
428.0771,708.2165
428.5593,704.7189
429.0414,702.5266
429.5235,701.0811
430.0056,699.0884
430.4877,696.3831
430.9698,693.5088
431.452,690.8087
431.9341,688.1354
432.4162,685.0189
432.8983,681.2857
433.3804,677.6381
433.8625,674.9792
434.3447,673.4761
434.8268,671.7422
435.3089,669.8251
435.791,667.5821
436.2731,664.6268
436.7552,661.2111
437.2374,658.2081
437.7195,656.2048
438.2016,654.8377
438.6837,652.7547
439.1658,649.1474
439.6479,645.8429
440.1301,642.9686
440.6122,640.457
441.0943,638.5974
441.5764,637.2842
442.0585,635.5911
442.5406,632.2585
443.0227,626.8556
443.5049,622.9349
443.987,621.9236
444.4691,620.9519
444.9512,619.2021
445.4333,616.9056
445.9154,614.4911
446.3976,612.1776
446.8797,609.9526
447.3618,607.8326
447.8439,605.9186
448.326,603.8047
448.8081,601.2415
449.2903,598.563
449.7724,595.8596
450.2545,593.1873
450.7366,590.745
451.2187,588.9259
451.7008,587.5088
452.183,585.5078
452.6651,582.6613
453.1472,579.8601
453.6293,577.7277
454.1114,575.9481
454.5935,574.1033
455.0757,572.1129
455.5578,570.0394
456.0399,567.9097
456.522,565.7343
457.0041,563.4613
457.4862,560.9698
457.9684,558.6027
458.4505,557.0792
458.9326,556.4207
459.4147,555.0511
459.8968,552.1301
460.3789,548.7985
460.8611,545.9332
461.3432,543.5771
461.8253,541.592
462.3074,539.9673
462.7895,538.561
463.2716,536.7241
463.7538,533.9392
464.2359,531.4332
464.718,529.5286
465.2001,527.8442
465.6822,525.9503
466.1643,523.7789
466.6465,521.6384
467.1286,519.8781
467.6107,518.5204
468.0928,517.1726
468.5749,515.972
469.057,514.6224
469.5392,512.8817
470.0213,510.9837
470.5034,509.3813
470.9855,508.2933
471.4676,507.2548
471.9497,505.2922
472.4319,502.0965
472.914,499.3467
473.3961,497.1124
473.8782,495.6023
474.3603,495.4455
474.8424,496.2759
475.3246,496.666
475.8067,495.423
476.2888,493.2964
476.7709,492.0153
477.253,491.7446
477.7351,491.2952
478.2173,489.8263
478.6994,488.0125
479.1815,486.9531
479.6636,486.8597
480.1457,486.9015
480.6278,486.9007
481.11,486.6934
481.592,485.8718
482.0742,484.3428
482.5563,482.6515
483.0384,481.2547
483.5205,480.1572
484.0026,479.0389
484.4847,478.0492
484.9669,476.8799
485.449,475.19
485.9311,473.2722
486.4132,471.6168
486.8953,470.4015
487.3774,469.5424
487.8596,469.0364
488.3417,469.5368
488.8238,468.5066
489.3059,464.5117
489.788,460.6261
490.2701,458.5361
490.7523,457.7734
491.2344,457.0566
491.7165,455.6477
492.1986,453.7041
492.6807,451.6143
493.1628,449.3258
493.645,447.0546
494.1271,445.0214
494.6092,442.9086
495.0913,440.3776
495.5734,437.4755
496.0555,434.6886
496.5377,432.532
497.0198,430.7501
497.5019,428.5682
497.984,425.8459
498.4661,423.3033
498.9482,421.3426
499.4304,419.8037
499.9125,418.3688
500.3946,417.0347
500.8767,415.7625
501.3588,414.5179
501.8409,413.3186
502.3231,412.2988
502.8052,411.4957
503.2873,410.4065
503.7694,408.399
504.2515,405.415
504.7336,403.3838
505.2158,402.893
505.6979,402.5816
506.18,402.0466
506.6621,401.3546
507.1442,400.6237
507.6263,399.9005
508.1085,399.211
508.5906,398.6467
509.0727,398.3481
509.5548,397.6566
510.0369,395.9247
510.519,394.4469
511.0012,393.9046
511.4833,393.9504
511.9654,393.856
512.4475,393.2221
512.9296,392.3987
513.4117,392.1735
513.8939,392.6977
514.376,392.6043
514.8581,391.025
515.3402,389.3066
515.8223,388.711
516.3044,389.0754
516.7866,389.2437
517.2687,388.6645
517.7508,387.6658
518.2329,386.4786
518.715,385.1512
519.1971,384.2134
519.6793,383.9947
520.1614,384.22
520.6435,384.3363
521.1256,384.451
521.6077,384.1966
522.0898,383.3377
522.572,382.2063
523.0541,380.9825
523.5362,379.7492
524.0183,378.6262
524.5004,377.6884
524.9825,376.9608
525.4647,376.5859
525.9468,377.132
526.4289,377.2122
526.911,376.2319
527.3931,375.0938
527.8752,374.6652
528.3574,374.9513
528.8395,375.1953
529.3216,374.6801
529.8037,373.5379
530.2858,372.5505
530.7679,371.7365
531.2501,371.0428
531.7322,370.3924
532.2143,369.8804
532.6964,369.6844
533.1785,369.8832
533.6606,370.0301
534.1428,369.8429
534.6249,369.3931
535.107,368.8202
535.5891,368.1397
536.0712,367.3432
536.5533,366.3712
537.0355,365.2736
537.5176,364.3744
537.9997,363.6892
538.4818,363.1592
538.9639,362.886
539.446,362.7025
539.9282,362.4585
540.4103,362.0981
540.8924,361.5085
541.3745,360.4976
541.8566,359.0378
542.3387,358.1188
542.8209,358.3439
543.3029,358.4149
543.785,357.9513
544.2672,357.2603
544.7493,356.6994
545.2314,356.3629
545.7135,356.0887
546.1956,355.7222
546.6777,355.2659
547.1599,354.7477
547.642,354.1253
548.1241,353.5375
548.6062,352.916
549.0883,352.4222
549.5704,352.45
550.0526,353.4369
550.5347,354.1562
551.0168,353.6364
551.4989,352.3315
551.981,351.0798
552.4631,350.0478
552.9453,349.3595
553.4274,349.2157
553.9095,349.6185
554.3916,349.703
554.8737,349.4141
555.3558,348.9243
555.838,348.2233
556.3201,347.3706
556.8022,346.3033
557.2843,345.0643
557.7664,344.0499
558.2485,343.7946
558.7307,344.3343
559.2128,344.6337
559.6949,344.5382
560.177,344.413
560.6591,344.5859
561.1412,344.7147
561.6234,344.2775
562.1055,343.0956
562.5876,341.8863
563.0697,341.2702
563.5518,341.1311
564.0339,341.1329
564.5161,341.2748
564.9982,341.3609
565.4803,341.2292
565.9624,340.9209
566.4445,340.6594
566.9266,340.6233
567.4088,340.381
567.8909,339.5704
568.373,338.5743
568.8551,337.8639
569.3372,337.5223
569.8193,337.3607
570.3015,337.2299
570.7836,337.1232
571.2657,336.9282
571.7478,336.536
572.2299,336.1979
572.712,336.1023
573.1942,335.9806
573.6763,335.5268
574.1584,334.7224
574.6405,333.879
575.1226,333.2296
575.6047,332.7603
576.0869,332.4163
576.569,332.1968
577.0511,332.1256
577.5332,332.4589
578.0153,332.7978
578.4974,332.4082
578.9796,331.0497
579.4617,330.0024
579.9438,330.1136
580.4259,330.5727
580.908,330.3665
581.3901,329.5115
581.8723,328.7178
582.3544,328.4491
582.8365,328.544
583.3186,328.4527
583.8007,328.1025
584.2828,327.665
584.765,327.1025
585.2471,326.4953
585.7292,325.7631
586.2113,325.0225
586.6934,324.6153
587.1755,324.8547
587.6577,325.3735
588.1398,325.2763
588.6219,324.4668
589.104,323.6764
589.5861,322.9843
590.0682,322.4755
590.5504,322.4115
591.0325,322.68
591.5146,322.5265
591.9967,321.055
592.4788,319.6339
592.9609,319.7785
593.4431,320.9704
593.9252,321.5858
594.4073,321.013
594.8894,319.9134
595.3715,319.1804
595.8536,318.8683
596.3358,318.694
596.8179,318.846
597.3,318.9064
597.7821,318.6583
598.2642,318.2518
598.7463,317.9361
599.2285,317.7899
599.7106,317.6232
600.1927,317.0958
600.6748,316.2298
601.1569,315.7557
601.639,315.8317
602.1212,316.0298
602.6033,316.2858
603.0854,316.452
603.5675,316.2107
604.0496,315.3406
604.5317,314.6107
605.0139,314.4416
605.496,314.634
605.9781,315.0784
606.4602,315.6875
606.9423,315.9383
607.4244,315.3871
607.9066,314.2492
608.3887,313.4927
608.8708,313.5246
609.3529,313.3745
609.835,312.797
610.3171,312.2042
610.7993,311.8747
611.2814,311.8023
611.7635,311.8549
612.2456,311.9819
612.7277,312.1279
613.2098,312.2557
613.692,312.3949
614.1741,312.0952
614.6562,310.9699
615.1383,309.7293
615.6204,309.0556
616.1025,308.8813
616.5847,308.9146
617.0668,309.4596
617.5489,309.8343
618.031,309.3955
618.5131,308.5056
618.9952,307.9029
619.4774,307.8062
619.9595,307.945
620.4416,308.0128
620.9237,308.0042
621.4058,308.0258
621.8879,308.3957
622.3701,308.3882
622.8522,307.5589
623.3343,306.4561
623.8164,305.6628
624.2985,305.2829
624.7806,304.9649
625.2628,304.4007
625.7448,303.6872
626.2269,303.0348
626.709,302.4326
627.1912,302.0892
627.6733,302.1672
628.1554,302.4922
628.6375,302.7715
629.1196,303.0287
629.6017,303.155
630.0839,303.0694
630.566,302.9048
631.0481,302.7406
631.5302,302.5724
632.0123,302.3268
632.4944,301.9701
