Raman Shift,Intensity
140.63,8235.28
142.016,8101.718
143.401,8160.304
144.787,8141.887
146.172,8120.31
147.557,8205.94
148.942,8094.021
150.327,8177.95
151.711,8183.699
153.096,8225.23
154.48,8189.28
155.863,8177.259
157.247,8242.745
158.63,8265.314
160.013,8220.443
161.396,8183.0
162.779,8230.0
164.161,8354.0
165.544,8274.0
166.926,8310.0
168.308,8334.0
169.689,8419.0
171.07,8504.0
172.452,8735.0
173.833,8756.0
175.213,8809.0
176.594,9112.0
177.974,9243.0
179.354,9794.0
180.734,10152.0
182.114,10665.0
183.493,11444.0
184.872,12444.0
186.251,13552.0
187.63,14931.0
189.008,16496.0
190.387,20546.0
191.765,20699.0
193.143,21080.0
194.52,19422.0
195.898,18199.0
197.275,16967.0
198.652,15338.0
200.029,14096.0
201.405,12880.0
202.782,11936.0
204.158,11201.0
205.534,10819.0
206.909,10257.79
208.285,10034.0
209.66,9562.0
211.035,9061.0
212.41,8661.0
213.784,8618.0
215.159,8445.0
216.533,8320.0
217.907,8250.0
219.281,8155.0
220.654,8118.0
222.027,8054.259
223.4,7999.659
224.773,7960.0
226.146,7927.0
227.518,7879.0
228.891,7890.0
230.263,7830.77
231.634,7828.0
233.006,7752.0
234.377,7772.0
235.748,7757.0
237.119,7723.0
238.49,7642.0
239.86,7692.0
241.231,7627.0
242.601,7603.0
243.97,7692.0
245.34,7741.0
246.709,7737.043
248.079,7797.0
249.448,7771.0
250.816,7682.0
252.185,7733.0
253.553,7772.0
254.921,7847.0
256.289,7972.0
257.657,8077.0
259.024,8293.0
260.391,8348.0
261.758,8517.0
263.125,8633.0
264.492,8972.0
265.858,9216.0
267.224,9546.0
268.59,9996.0
269.956,11215.0
271.321,11286.0
272.687,11854.0
274.052,12737.0
275.416,13028.0
276.781,13118.0
278.146,13044.0
279.51,12378.0
280.874,11881.0
282.237,11093.0
283.601,10621.0
284.964,10073.0
286.327,9532.0
287.69,9291.0
289.053,8998.0
290.416,8804.0
291.778,8686.0
293.14,8545.0
294.502,8504.0
295.863,8447.39
297.225,8429.833
298.586,8449.0
299.947,8476.0
301.308,8555.0
302.668,8627.0
304.029,8763.0
305.389,8978.0
306.749,9209.0
308.108,9397.0
309.468,9578.0
310.827,9838.0
312.186,10050.0
313.545,10257.0
314.903,10624.0
316.262,10904.0
317.62,11125.0
318.978,11320.0
320.336,11568.0
321.693,11707.0
323.051,11691.0
324.408,11566.0
325.765,11250.0
327.121,11182.0
328.478,10837.0
329.834,10553.0
331.19,10346.0
332.546,10102.0
333.902,9862.771
335.257,9632.0
336.612,9414.0
337.967,9261.0
339.322,9073.0
340.677,8964.0
342.031,8825.0
343.385,8785.0
344.739,8699.156
346.093,8674.57
347.446,8618.0
348.799,8691.0
350.153,8712.0
351.505,8786.0
352.858,8707.0
354.21,8783.0
355.563,8794.0
356.915,8769.0
358.267,8797.0
359.618,8876.0
360.969,8914.851
362.321,8959.325
363.672,8995.0
365.022,9013.0
366.373,8978.153
367.723,8939.475
369.073,8874.0
370.423,8774.0
371.773,8723.0
373.122,8593.0
374.471,8570.0
375.821,8549.0
377.169,8445.0
378.518,8457.0
379.866,8340.0
381.215,8263.0
382.563,8304.0
383.91,8239.0
385.258,8202.0
386.605,8286.0
387.952,8208.0
389.299,8108.0
390.646,8180.0
391.992,8170.0
393.339,8184.0
394.685,8171.0
396.031,8193.0
397.376,8224.0
398.722,8062.0
400.067,8093.0
401.412,8105.0
402.757,8075.0
404.101,8086.0
405.446,8081.491
406.79,8101.0
408.134,8098.0
409.478,8085.0
410.821,8128.0
412.165,8128.0
413.508,8132.137
414.851,8168.0
416.193,8164.0
417.536,8172.632
418.878,8181.0
420.22,8169.0
421.562,8169.0
422.904,8202.667
424.245,8299.0
425.586,8280.0
426.927,8348.0
428.268,8396.0
429.609,8312.0
430.949,8298.0
432.289,8379.0
433.629,8352.0
434.969,8271.0
436.309,8316.0
437.648,8263.0
438.987,8255.3
440.326,8363.0
441.665,8274.0
443.003,8320.0
444.342,8411.0
445.68,8307.0
447.018,8337.0
448.355,8268.0
449.693,8140.0
451.03,8222.0
452.367,8146.0
453.704,8140.0
455.041,8070.0
456.377,8040.0
457.713,7968.0
459.049,8032.0
460.385,8003.0
461.721,7937.0
463.056,7935.554
464.391,7868.92
465.726,7824.0
467.061,7793.0
468.395,7682.0
469.73,7713.0
471.064,7702.0
472.398,7586.0
473.731,7713.0
475.065,7598.0
476.398,7581.0
477.731,7637.0
479.064,7731.0
480.397,7770.0
481.729,7830.0
483.062,7869.0
484.394,7944.0
485.725,7839.0
487.057,7949.0
488.389,7918.0
489.72,8079.0
491.051,8022.0
492.382,8130.0
493.712,8119.0
495.043,8132.0
496.373,8278.0
497.703,8304.0
499.032,8362.0
500.362,8388.0
501.691,8439.0
503.02,8565.0
504.349,8515.0
505.678,8601.0
507.007,8693.0
508.335,8689.0
509.663,8750.0
510.991,8740.0
512.319,8702.0
513.646,8619.0
514.973,8611.0
516.3,8569.0
517.627,8614.0
518.954,8483.0
520.28,8416.0
521.607,8499.0
522.933,8441.0
524.259,8473.0
525.584,8416.0
526.91,8274.0
528.235,8416.0
529.56,8365.0
530.885,8449.0
532.209,8365.0
533.534,8358.0
534.858,8372.0
536.182,8322.0
537.506,8353.535
538.829,8366.0
540.152,8414.0
541.476,8412.0
542.799,8497.0
544.121,8263.0
545.444,8454.0
546.766,8401.0
548.088,8419.0
549.41,8485.0
550.732,8498.422
552.053,8567.0
553.375,8579.0
554.696,8498.0
556.017,8467.0
557.337,8580.0
558.658,8601.0
559.978,8492.0
561.298,8469.0
562.618,8586.0
563.938,8508.122
565.257,8486.266
566.576,8590.0
567.895,8326.0
569.214,8539.0
570.533,8417.0
571.851,8521.0
573.17,8389.0
574.488,8515.0
575.805,8428.0
577.123,8631.0
578.44,8554.0
579.758,8354.0
581.075,8513.0
582.391,8443.0
583.708,8541.0
585.024,8469.235
586.341,8626.854
587.657,8728.774
588.972,8777.989
590.288,8616.752
591.603,8727.276
592.918,8754.0
594.233,8839.0
595.548,8876.0
596.863,8807.0
598.177,8874.0
599.491,8993.0
600.805,8969.0
602.119,9094.0
603.432,8964.0
604.746,9072.0
606.059,8997.0
607.372,9063.0
608.685,9039.0
609.997,9043.731
611.309,9177.0
612.621,9113.0
613.933,9156.0
615.245,9296.0
616.557,9442.0
617.868,9452.0
619.179,9449.0
620.49,9665.0
621.801,9571.0
623.111,9913.0
624.421,9736.0
625.731,10190.0
627.041,10017.0
628.351,10428.0
629.66,10394.0
630.97,10516.0
632.279,10785.0
633.588,10742.0
634.896,10915.0
636.205,10946.0
637.513,11174.0
638.821,11025.0
640.129,11203.0
641.437,11296.0
642.744,11276.0
644.051,11310.0
645.358,11474.0
646.665,11465.0
647.972,11637.0
649.278,11460.0
650.584,11702.0
651.89,11764.0
653.196,12064.0
654.502,11936.0
655.807,12291.0
657.113,12300.0
658.418,12699.0
659.722,12904.0
661.027,13071.0
662.331,13426.0
663.636,13795.0
664.94,14225.0
666.244,14517.0
667.547,15168.0
668.851,15630.0
670.154,16704.0
671.457,17342.0
672.76,18506.0
674.062,19725.0
675.365,20578.0
676.667,21860.0
677.969,23082.0
679.271,23664.0
680.572,24368.0
681.874,24166.0
683.175,24518.0
684.476,23900.0
685.777,22914.0
687.077,22046.0
688.378,20465.0
689.678,19507.0
690.978,18245.0
692.278,17049.0
693.577,15713.0
694.877,15285.0
696.176,14260.0
697.475,13523.0
698.774,12807.0
700.072,12418.0
701.371,11829.646
702.669,11517.87
703.967,11068.0
705.265,10996.0
706.562,10918.0
707.86,10698.0
709.157,10329.0
710.454,10384.0
711.751,10254.0
713.047,10331.0
714.344,10096.0
715.64,10185.0
716.936,10057.0
718.232,10080.0
719.527,10145.0
720.823,10188.0
722.118,10228.0
723.413,10161.17
724.708,10245.445
726.002,10293.041
727.297,10305.928
728.591,10180.151
729.885,10233.431
731.179,10214.952
732.472,10232.0
733.766,10260.0
735.059,10242.0
736.352,10221.0
737.645,10301.0
738.937,10220.0
740.23,10283.0
741.522,10205.0
742.814,10073.0
744.106,10111.0
745.397,10110.0
746.689,9944.0
747.98,9861.0
749.271,10019.0
750.562,9748.0
751.853,10035.0
753.143,9798.0
754.433,9935.0
755.723,9795.0
757.013,9736.0
758.303,9887.0
759.592,9734.0
760.881,9835.0
762.17,9699.0
763.459,9863.0
764.748,9808.0
766.036,9841.0
767.325,9986.0
768.613,9824.0
769.901,10107.0
771.188,10069.0
772.476,9974.0
773.763,10185.0
775.05,10007.0
776.337,10195.0
777.624,10402.0
778.91,10311.0
780.196,10414.0
781.482,10458.0
782.768,10311.0
784.054,10285.0
785.339,10361.0
786.625,10472.0
787.91,10315.0
789.195,10377.0
790.479,10198.0
791.764,10176.0
793.048,10214.0
794.332,10089.0
795.616,10188.0
796.9,9967.0
798.183,9953.0
799.467,9824.0
800.75,9813.0
802.033,9730.78
803.316,9650.418
804.598,9682.0
805.88,9444.0
807.163,9605.0
808.445,9406.0
809.726,9434.854
811.008,9397.688
812.289,9449.0
813.57,9338.0
814.851,9314.0
816.132,9383.0
817.413,9353.0
818.693,9206.0
819.973,9245.0
821.253,9352.0
822.533,9145.0
823.813,9316.0
825.092,9244.0
826.371,9284.0
827.65,9153.0
828.929,9219.0
830.208,9349.0
831.486,9324.0
832.764,9229.0
834.042,9235.0
835.32,9334.0
836.598,9243.0
837.875,9350.0
839.152,9409.0
840.429,9340.0
841.706,9468.0
842.983,9317.0
844.259,9384.0
845.536,9396.0
846.812,9401.0
848.088,9427.0
849.363,9417.0
850.639,9445.0
851.914,9456.0
853.189,9403.0
854.464,9449.0
855.739,9465.0
857.013,9546.0
858.288,9489.0
859.562,9462.0
860.836,9555.0
862.11,9712.0
863.383,9522.0
864.656,9696.0
865.93,9601.0
867.203,9710.0
868.475,9746.0
869.748,9653.0
871.02,9854.0
872.292,9774.0
873.564,9673.0
874.836,9801.0
876.108,9679.0
877.379,9675.0
878.65,9749.665
879.922,9740.364
881.192,9815.0
882.463,9850.0
883.733,9764.0
885.004,9791.0
886.274,9824.0
887.544,9794.0
888.813,9980.0
890.083,9907.22
891.352,9950.0
892.621,9897.0
893.89,9836.0
895.159,9888.0
896.427,9881.0
897.695,9798.0
898.964,9895.0
900.232,9904.0
901.499,9869.0
902.767,9959.0
904.034,9969.0
905.301,9980.98
906.568,9940.0
907.835,10003.0
909.102,9952.0
910.368,9944.0
911.634,9909.0
912.9,9997.0
914.166,9970.0
915.432,10094.0
916.697,10019.0
917.962,10042.0
919.227,10029.0
920.492,10058.0
921.757,10076.0
923.021,10014.0
924.285,10186.0
925.55,10052.0
926.813,10140.0
928.077,10082.0
929.341,10038.0
930.604,10049.0
931.867,10112.0
933.13,9990.0
934.393,10092.0
935.655,10290.0
936.918,9975.0
938.18,10236.0
939.442,10154.0
940.703,10073.0
941.965,10096.0
943.226,10132.0
944.488,10080.0
945.749,10071.0
947.009,10224.0
948.27,10122.0
949.53,10220.0
950.791,10425.0
952.051,10207.0
953.311,10159.0
954.57,10070.0
955.83,10311.0
957.089,10311.0
958.348,10284.0
959.607,10226.0
960.866,10280.0
962.124,10324.0
963.383,10264.0
964.641,10423.0
965.899,10364.0
967.156,10447.0
968.414,10456.0
969.671,10358.0
970.928,10387.0
972.185,10437.0
973.442,10543.0
974.699,10526.0
975.955,10689.0
977.211,10588.0
978.468,10580.0
979.723,10672.0
980.979,10591.0
982.234,10522.0
983.49,10823.0
984.745,10457.0
986.0,10780.0
987.254,10780.0
988.509,10704.0
989.763,10820.0
991.017,10746.0
992.271,10832.0
993.525,10850.0
994.779,10915.0
996.032,11017.0
997.285,11030.0
998.538,11043.0
999.791,11102.42
1001.044,11139.932
1002.296,11164.0
1003.548,11246.0
1004.8,11260.0
1006.052,11289.0
1007.304,11271.0
1008.555,11262.0
1009.807,11274.0
1011.058,11200.0
1012.309,11315.0
1013.559,11260.0
1014.81,11158.0
1016.06,11076.0
1017.31,11196.0
1018.56,11150.341
1019.81,11023.0
1021.06,11214.0
1022.309,11369.0
1023.558,11374.0
1024.807,11550.0
1026.056,11603.0
1027.305,12139.0
1028.553,12153.0
1029.801,12518.0
1031.049,12444.0
1032.297,12532.0
1033.545,12667.0
1034.793,12576.153
1036.04,12602.0
1037.287,12518.0
1038.534,12456.0
1039.781,12481.0
1041.027,12305.0
1042.274,12216.887
1043.52,11888.0
1044.766,11950.0
1046.012,11801.0
1047.257,11729.0
1048.503,11686.0
1049.748,11769.0
1050.993,11695.182
1052.238,11815.0
1053.483,11705.0
1054.727,11687.0
1055.971,11805.0
1057.216,11855.0
1058.459,11747.0
1059.703,11841.0
1060.947,11761.0
1062.19,11850.0
1063.433,11910.0
1064.676,11986.0
1065.919,11811.0
1067.162,11925.0
1068.404,12118.0
1069.646,11880.0
1070.888,12046.0
1072.13,12074.0
1073.372,12146.0
1074.613,12193.0
1075.855,12282.0
1077.096,12256.0
1078.337,12352.0
1079.578,12506.0
1080.818,12490.0
1082.059,12524.0
1083.299,12477.0
1084.539,12638.0
1085.779,12608.0
1087.018,12672.0
1088.258,12643.0
1089.497,12672.0
1090.736,12650.0
1091.975,12664.0
1093.213,12570.0
1094.452,12561.0
1095.69,12526.86
1096.928,12446.0
1098.166,12493.0
1099.404,12393.0
1100.642,12431.0
1101.879,12173.0
1103.116,12211.0
1104.353,12053.0
1105.59,11909.0
1106.827,11779.0
1108.063,11701.658
1109.299,11578.0
1110.536,11558.0
1111.771,11422.0
1113.007,11289.0
1114.243,11328.0
1115.478,11266.0
1116.713,11155.0
1117.948,11053.0
1119.183,11028.0
1120.418,10922.0
1121.652,11008.0
1122.886,10957.0
1124.12,10924.0
1125.354,10835.0
1126.588,10711.0
1127.821,10665.0
1129.055,10714.0
1130.288,10726.0
1131.521,10742.0
1132.753,10645.0
1133.986,10657.0
1135.218,10543.0
1136.45,10777.0
1137.682,10565.0
1138.914,10752.0
1140.146,10478.0
1141.377,10555.0
1142.609,10484.0
1143.84,10551.0
1145.071,10570.0
1146.301,10697.0
1147.532,10825.0
1148.762,10646.0
1149.992,10625.0
1151.222,10519.0
1152.452,10596.0
1153.682,10575.0
1154.911,10521.0
1156.14,10653.0
1157.369,10632.0
1158.598,10555.0
1159.827,10656.0
1161.055,10623.814
1162.284,10665.0
1163.512,10684.0
1164.74,10712.0
1165.967,10783.0
1167.195,10596.0
1168.422,10740.0
1169.65,10716.0
1170.877,10654.0
1172.103,10722.0
1173.33,10646.0
1174.557,10675.0
1175.783,10794.0
1177.009,10739.0
1178.235,10542.0
1179.461,10771.0
1180.686,10666.0
1181.912,10619.0
1183.137,10759.0
1184.362,10852.0
1185.587,10761.0
1186.811,10747.0
1188.036,10857.0
1189.26,10728.0
1190.484,10868.0
1191.708,10819.0
1192.932,10816.0
1194.155,10729.0
1195.378,10852.0
1196.602,10861.0
1197.825,10796.0
1199.047,10889.0
1200.27,10904.0
1201.492,10838.0
1202.715,10996.0
1203.937,10716.0
1205.159,10993.0
1206.38,10966.0
1207.602,10937.0
1208.823,10821.0
1210.044,10941.0
1211.265,10925.0
1212.486,10889.0
1213.707,11006.0
1214.927,10939.0
1216.147,10932.0
1217.367,10947.0
1218.587,11004.0
1219.807,11057.0
1221.027,10992.0
1222.246,10992.0
1223.465,11038.0
1224.684,10986.0
1225.903,11104.0
1227.121,11137.0
1228.34,11097.0
1229.558,11118.0
1230.776,11202.0
1231.994,11143.0
1233.212,11087.0
1234.429,11198.0
1235.646,11108.0
1236.864,11206.0
1238.081,11345.0
1239.297,11190.0
1240.514,11313.0
1241.73,11278.0
1242.947,11364.0
1244.163,11388.0
1245.378,11276.0
1246.594,11396.0
1247.81,11400.0
1249.025,11261.0
1250.24,11490.0
1251.455,11392.0
1252.67,11462.0
1253.885,11492.435
1255.099,11628.0
1256.313,11484.0
1257.527,11454.0
1258.741,11429.84
1259.955,11643.0
1261.168,11528.0
1262.382,11565.0
1263.595,11681.0
1264.808,11685.0
1266.021,11643.0
1267.233,11750.0
1268.446,11720.0
1269.658,11737.0
1270.87,11681.0
1272.082,11803.0
1273.294,11828.0
1274.505,11721.0
1275.716,11670.0
1276.928,11774.0
1278.139,11726.0
1279.349,11742.0
1280.56,11838.0
1281.77,11825.0
1282.981,11769.0
1284.191,11877.0
1285.401,11928.0
1286.61,11870.0
1287.82,11883.0
1289.029,11882.0
1290.239,11933.0
1291.448,11977.74
1292.656,12018.0
1293.865,12117.0
1295.073,12170.0
1296.282,12258.0
1297.49,12310.0
1298.698,12315.0
1299.906,12498.0
1301.113,12595.0
1302.32,12609.0
1303.528,12576.0
1304.735,12640.0
1305.942,12583.0
1307.148,12524.0
1308.355,12557.0
1309.561,12441.0
1310.767,12561.0
1311.973,12347.0
1313.179,12235.0
1314.384,12228.0
1315.59,12283.0
1316.795,12215.0
1318.0,12298.0
1319.205,12052.0
1320.41,12223.0
1321.614,12046.0
1322.819,11993.0
1324.023,12182.0
1325.227,12064.0
1326.431,12049.0
1327.634,11964.0
1328.838,11875.0
1330.041,12006.0
1331.244,11981.0
1332.447,12002.0
1333.65,11970.0
1334.852,11953.0
1336.055,11933.0
1337.257,11921.0
1338.459,11908.084
1339.661,11916.0
1340.862,11895.825
1342.064,11889.0
1343.265,11900.0
1344.466,11957.0
1345.667,11909.0
1346.868,11944.0
1348.068,12071.0
1349.269,12053.0
1350.469,11980.0
1351.669,12069.0
1352.869,12130.0
1354.069,12128.0
1355.268,12221.0
1356.468,12052.0
1357.667,12116.834
1358.866,12112.84
1360.065,12069.0
1361.263,12185.0
1362.462,12086.0
1363.66,12198.0
1364.858,12202.0
1366.056,12123.0
1367.254,12252.0
1368.451,12230.0
1369.649,12182.0
1370.846,12105.0
1372.043,12127.095
1373.24,12083.0
1374.436,12194.0
1375.633,12227.0
1376.829,12356.0
1378.025,12231.0
1379.221,12043.0
1380.417,12249.0
1381.613,12113.0
1382.808,12132.0
1384.003,12282.0
1385.199,12288.0
1386.393,12256.0
1387.588,12233.0
1388.783,12313.0
1389.977,12219.0
1391.171,12350.0
1392.365,12326.588
1393.559,12268.0
1394.753,12329.0
1395.946,12361.0
1397.14,12323.0
1398.333,12288.0
1399.526,12370.0
1400.719,12339.0
1401.911,12405.0
1403.104,12449.0
1404.296,12478.0
1405.488,12534.0
1406.68,12471.0
1407.872,12466.0
1409.063,12489.0
1410.255,12642.0
1411.446,12532.0
1412.637,12757.0
1413.828,12578.0
1415.018,12751.0
1416.209,12748.0
1417.399,12796.0
1418.589,12908.0
1419.779,12940.0
1420.969,12965.0
1422.159,13014.962
1423.348,12992.0
1424.537,13026.0
1425.726,13111.0
1426.915,13047.0
1428.104,13250.0
1429.293,13425.0
1430.481,13457.0
1431.669,13495.0
1432.857,13771.0
1434.045,13934.0
1435.233,14123.0
1436.42,14289.466
1437.608,14529.0
1438.795,14507.0
1439.982,14718.0
1441.169,14704.0
1442.355,14740.0
1443.542,14782.0
1444.728,14853.0
1445.914,14706.0
1447.1,14694.0
1448.286,14609.0
1449.472,14603.0
1450.657,14476.0
1451.842,14454.0
1453.027,14447.0
1454.212,14375.0
1455.397,14587.0
1456.581,14260.0
1457.766,14416.0
1458.95,14416.0
1460.134,14182.0
1461.318,14312.0
1462.501,14087.0
1463.685,13976.0
1464.868,13925.0
1466.051,13853.0
1467.234,13838.984
1468.417,13629.0
1469.6,13824.0
1470.782,13779.0
1471.965,13723.0
1473.147,13514.0
1474.329,13710.0
1475.51,13559.0
1476.692,13422.0
1477.873,13442.0
1479.055,13549.0
1480.236,13423.176
1481.416,13483.644
1482.597,13304.0
1483.778,13444.0
1484.958,13402.0
1486.138,13305.0
1487.318,13340.0
1488.498,13463.0
1489.678,13360.0
1490.857,13362.0
1492.037,13265.0
1493.216,13371.0
1494.395,13385.0
1495.574,13304.0
1496.752,13410.0
1497.931,13279.0
1499.109,13300.973
1500.287,13239.428
1501.465,13324.0
1502.643,13294.302
1503.82,13239.0
1504.998,13295.0
1506.175,13326.0
1507.352,13328.0
1508.529,13319.0
1509.706,13354.0
1510.882,13387.0
1512.059,13310.0
1513.235,13456.0
1514.411,13438.0
1515.587,13360.0
1516.762,13526.0
1517.938,13334.0
1519.113,13443.0
1520.288,13516.0
1521.463,13544.0
1522.638,13523.0
1523.813,13557.0
1524.987,13530.0
