Raman Shift,Intensity
92.04205,293.3813
92.52417,294.166
93.00629,294.3021
93.4884,292.2422
93.97052,286.8093
94.45264,278.5881
94.93475,272.1105
95.41687,265.739
95.89898,259.316
96.3811,253.2885
96.86321,248.1958
97.34533,244.0927
97.82745,240.1246
98.30956,235.7227
98.79168,229.595
99.2738,224.6402
99.75591,222.1894
100.238,221.4812
100.7201,220.5055
101.2023,217.8928
101.6844,214.1114
102.1665,211.2672
102.6486,209.5903
103.1307,208.6046
103.6128,207.9817
104.095,207.7429
104.5771,207.654
105.0592,207.2303
105.5413,206.7977
106.0234,206.9468
106.5055,207.8136
106.9877,209.4253
107.4698,212.0806
107.9519,216.9713
108.434,221.4357
108.9161,224.1575
109.3982,225.5512
109.8804,226.666
110.3625,228.4351
110.8446,230.9847
111.3267,233.4821
111.8088,236.0946
112.2909,238.5353
112.7731,240.4012
113.2552,241.7653
113.7373,243.2241
114.2194,245.6006
114.7015,249.2456
115.1836,253.4434
115.6658,257.958
116.1479,263.095
116.63,269.141
117.1121,276.2142
117.5942,284.2451
118.0763,293.2673
118.5584,303.708
119.0406,314.013
119.5227,322.398
120.0048,330.0526
120.4869,340.5296
120.969,356.0015
121.4511,375.0484
121.9333,393.4333
122.4154,409.5565
122.8975,427.703
123.3796,450.9536
123.8617,479.3893
124.3438,512.5946
124.826,551.0367
125.3081,593.9228
125.7902,642.0394
126.2723,696.0648
126.7544,754.3925
127.2365,814.7889
127.7187,886.5402
128.2008,943.4331
128.6829,988.6974
129.165,1015.645
129.6471,1014.196
130.1292,976.2192
130.6114,903.5871
131.0935,823.2347
131.5756,718.3985
132.0577,621.0729
132.5398,538.183
133.0219,469.5385
133.5041,413.009
133.9862,366.9596
134.4683,332.4149
134.9504,303.0727
135.4325,278.0906
135.9146,257.6391
136.3968,243.1283
136.8789,234.1878
137.361,227.8692
137.8431,221.0487
138.3252,213.3791
138.8073,207.3195
139.2895,203.7986
139.7716,201.6273
140.2537,199.5289
140.7358,197.2742
141.2179,194.9452
141.7,192.5376
142.1821,190.0489
142.6643,187.8914
143.1464,186.6326
143.6285,185.9389
144.1106,184.4898
144.5927,181.4326
145.0748,178.1782
145.557,176.0599
146.0391,175.0903
146.5212,174.2997
147.0033,172.6046
147.4854,169.8214
147.9675,167.9202
148.4497,168.5955
148.9318,169.4391
149.4139,168.9789
149.896,166.9486
150.3781,164.3451
150.8602,162.7418
151.3424,162.8096
151.8245,162.3942
152.3066,161.2306
152.7887,159.6449
153.2708,157.6911
153.7529,155.4311
154.2351,153.1649
154.7172,151.6694
155.1993,152.0341
155.6814,151.917
156.1635,150.8578
156.6456,149.3643
157.1278,148.0212
157.6099,147.1145
158.092,146.582
158.5741,146.189
159.0562,146.0947
159.5383,145.9396
160.0205,145.2892
160.5026,144.4815
160.9847,144.4182
161.4668,145.8403
161.9489,148.2781
162.431,149.5801
162.9131,148.979
163.3953,148.0854
163.8774,147.6152
164.3595,147.5719
164.8416,148.0528
165.3237,149.4393
165.8058,151.3465
166.288,152.8624
166.7701,153.7777
167.2522,154.3625
167.7343,154.8422
168.2164,155.1785
168.6985,155.589
169.1807,156.1528
169.6628,156.8718
170.1449,157.78
170.627,158.8571
171.1091,160.1472
171.5912,161.8603
172.0734,164.4176
172.5555,166.5993
173.0376,167.6363
173.5197,168.132
174.0018,168.9343
174.4839,170.5283
174.9661,172.832
175.4482,175.3606
175.9303,178.459
176.4124,181.404
176.8945,183.89
177.3766,186.0928
177.8588,188.2811
178.3409,190.6378
178.823,193.1677
179.3051,195.9777
179.7872,198.8877
180.2693,202.2476
180.7515,206.3566
181.2336,211.0475
181.7157,215.846
182.1978,220.3215
182.6799,224.3851
183.162,229.0432
183.6441,234.5147
184.1263,240.2287
184.6084,245.872
185.0905,251.4532
185.5726,257.1653
186.0547,263.103
186.5368,269.2813
187.019,276.0836
187.5011,283.8879
187.9832,291.9581
188.4653,299.5777
188.9474,306.6738
189.4296,314.0784
189.9117,322.6937
190.3938,332.4926
190.8759,342.4706
191.358,352.379
191.8401,362.4372
192.3223,373.0524
192.8044,384.3763
193.2865,395.8013
193.7686,406.5294
194.2507,416.8275
194.7328,427.5613
195.215,439.2399
195.6971,451.5262
196.1792,463.8251
196.6613,476.0956
197.1434,488.3608
197.6255,500.7326
198.1077,513.1885
198.5898,525.3967
199.0719,536.7106
199.554,547.5732
200.0361,560.021
200.5182,575.7503
201.0004,590.7891
201.4825,602.8989
201.9646,612.6995
202.4467,621.6295
202.9288,630.829
203.4109,640.2263
203.893,648.2169
204.3752,654.3488
204.8573,659.2872
205.3394,663.7683
205.8215,667.3513
206.3036,669.0121
206.7857,667.725
207.2679,663.3843
207.75,658.161
208.2321,652.1426
208.7142,645.0704
209.1963,636.6229
209.6784,626.9841
210.1606,616.5944
210.6427,605.7745
211.1248,594.5648
211.6069,583.1065
212.089,572.1651
212.5711,560.3488
213.0533,546.7336
213.5354,531.6246
214.0175,515.8653
214.4996,500.1653
214.9817,484.4376
215.4638,469.3371
215.946,454.8736
216.4281,440.8295
216.9102,427.0403
217.3923,413.547
217.8744,400.2851
218.3565,387.206
218.8387,374.2867
219.3208,362.3923
219.8029,352.0701
220.285,342.1386
220.7671,331.6577
221.2492,320.6991
221.7314,310.2432
222.2135,301.2277
222.6956,293.7959
223.1777,286.1761
223.6598,277.866
224.1419,269.7211
224.624,262.5184
225.1062,256.2548
225.5883,250.2586
226.0704,243.8436
226.5525,237.204
227.0346,231.4289
227.5167,227.2292
227.9989,223.5347
228.481,219.5711
228.9631,215.3155
229.4452,210.6527
229.9273,205.2453
230.4094,199.3782
230.8916,193.8119
231.3737,188.323
231.8558,183.4019
232.3379,179.8766
232.82,177.9301
233.3021,176.0954
233.7843,173.2397
234.2664,169.9194
234.7485,166.98
235.2306,164.7256
235.7127,162.8647
236.1948,161.0131
236.677,159.1488
237.1591,157.3409
237.6412,155.8786
238.1233,154.4065
238.6054,152.4133
239.0875,149.5346
239.5697,146.3674
240.0518,143.9308
240.5339,142.4204
241.016,140.9894
241.4981,139.1741
241.9802,137.3269
242.4624,135.8084
242.9445,134.7718
243.4266,134.0313
243.9087,133.2362
244.3908,132.2626
244.8729,131.5916
245.355,131.6396
245.8372,131.8759
246.3193,131.897
246.8014,131.5717
247.2835,130.9278
247.7656,129.9143
248.2477,128.2573
248.7299,126.9026
249.212,126.1409
249.6941,125.6311
250.1762,125.1443
250.6583,124.6062
251.1404,124.0586
251.6226,123.5416
252.1047,122.9795
252.5868,122.6471
253.0689,122.6069
253.551,122.7358
254.0331,123.068
254.5153,123.5671
254.9974,123.9887
255.4795,123.8604
255.9616,122.6162
256.4437,122.08
256.9258,122.5085
257.408,123.3418
257.8901,124.1693
258.3722,124.9417
258.8543,125.9523
259.3364,127.6485
259.8185,130.3862
260.3007,132.9372
260.7828,134.9616
261.2649,137.1174
261.747,139.6991
262.2291,142.8018
262.7112,146.4939
263.1934,151.0912
263.6755,157.4089
264.1576,161.4685
264.6397,163.1898
265.1218,163.2316
265.6039,161.9867
266.0861,159.4423
266.5682,155.1992
267.0503,148.6639
267.5324,139.3969
268.0145,130.6478
268.4966,121.8557
268.9788,113.9472
269.4609,107.3719
269.943,102.1251
270.4251,98.07355
270.9072,95.20782
271.3893,93.58869
271.8715,91.9929
272.3536,90.4733
272.8357,88.92397
273.3178,87.29048
273.7999,85.59132
274.282,83.81392
274.7642,81.86342
275.2463,79.82032
275.7284,78.79992
276.2105,79.54214
276.6926,80.2384
277.1747,80.40797
277.6568,80.07553
278.1389,79.25237
278.6211,77.84621
279.1032,76.0964
279.5853,75.06874
280.0674,75.35831
280.5495,75.51039
281.0316,74.95567
281.5138,74.04417
281.9959,73.46036
282.478,73.54688
282.9601,73.96891
283.4422,73.81503
283.9243,72.65777
284.4065,71.81905
284.8886,71.89268
285.3707,72.36095
285.8528,72.41975
286.3349,71.77805
286.817,70.82465
287.2992,70.18092
287.7813,69.85532
288.2634,69.76601
288.7455,70.20881
289.2276,70.76247
289.7097,70.88998
290.1919,70.46307
290.674,69.75116
291.1561,68.95769
291.6382,68.02567
292.1203,67.55541
292.6024,68.23492
293.0846,69.04893
293.5667,68.81031
294.0488,67.38606
294.5309,65.87356
295.013,65.2779
295.4951,65.64507
295.9773,66.05419
296.4594,66.71318
296.9415,67.23137
297.4236,67.13092
297.9057,66.46285
298.3878,65.93941
298.87,66.1637
299.3521,66.9804
299.8342,67.31575
300.3163,66.75279
300.7984,66.0973
301.2805,65.88599
301.7627,66.01871
302.2448,65.99967
302.7269,65.51987
303.209,64.74355
303.6911,64.18007
304.1732,63.91378
304.6554,63.69212
305.1375,63.42871
305.6196,63.12632
306.1017,62.74902
306.5838,62.22355
307.0659,61.731
307.5481,61.67236
308.0302,62.1111
308.5123,62.58648
308.9944,63.08132
309.4765,63.49095
309.9586,63.54848
310.4408,63.12592
310.9229,62.60494
311.405,62.59739
311.8871,63.13228
312.3692,63.36855
312.8513,62.77522
313.3335,61.96623
313.8156,61.79469
314.2977,62.40718
314.7798,63.03017
315.2619,62.87151
315.744,61.98188
316.2262,61.33016
316.7083,60.95295
317.1904,60.87051
317.6725,61.28293
318.1546,62.14117
318.6367,62.84795
319.1188,62.96116
319.601,62.58482
320.0831,62.35331
320.5652,62.47343
321.0473,62.52866
321.5294,62.13981
322.0115,61.45752
322.4937,61.02863
322.9758,61.15081
323.4579,61.63734
323.94,62.02925
324.4221,62.38055
324.9042,62.56155
325.3864,62.48135
325.8685,62.2075
326.3506,61.8144
326.8327,61.28645
327.3148,60.789
327.7969,60.62987
328.2791,60.86163
328.7612,61.03972
329.2433,61.02889
329.7254,60.94772
330.2075,60.97488
330.6896,61.14132
331.1718,61.23958
331.6539,60.98455
332.136,60.34349
332.6181,60.05326
333.1002,60.36271
333.5823,60.8597
334.0645,61.25541
334.5466,61.5463
335.0287,61.87095
335.5108,62.3147
335.9929,62.87913
336.475,63.51678
336.9572,64.47985
337.4393,65.25427
337.9214,65.41933
338.4035,65.22429
338.8856,65.29082
339.3677,65.9399
339.8499,66.94501
340.332,67.69929
340.8141,68.15213
341.2962,68.4943
341.7783,68.54295
342.2604,68.57832
342.7426,69.06863
343.2247,70.14671
343.7068,71.35078
344.1889,71.99612
344.671,71.74176
345.1531,71.93284
345.6353,72.82996
346.1174,73.99749
346.5995,75.02129
347.0816,75.90921
347.5637,77.0615
348.0458,78.83066
348.528,81.25484
349.0101,83.87676
349.4922,86.58379
349.9743,89.55701
350.4564,92.65649
350.9385,96.05355
351.4207,100.1633
351.9028,105.2339
352.3849,111.1294
352.867,117.3657
353.3491,123.544
353.8312,130.5325
354.3134,139.4662
354.7955,148.8503
355.2776,157.7117
355.7597,165.5819
356.2418,171.1646
356.7239,172.3696
357.2061,168.7368
357.6882,160.7531
358.1703,145.0722
358.6524,127.9611
359.1345,113.0008
359.6166,100.8414
360.0987,91.07606
360.5808,83.36095
361.063,77.81813
361.5451,73.23226
362.0272,69.82254
362.5093,67.0724
362.9914,65.02052
363.4735,63.48521
363.9557,62.23798
364.4378,61.14263
364.9199,60.20285
365.402,59.42889
365.8841,58.75103
366.3662,58.37511
366.8484,58.41998
367.3305,58.7103
367.8126,59.1871
368.2947,59.79903
368.7768,60.31842
369.2589,60.30983
369.7411,59.45417
370.2232,58.94468
370.7053,59.15361
371.1874,59.41519
371.6695,59.28299
372.1516,58.82676
372.6338,58.48623
373.1159,58.69989
373.598,59.44656
374.0801,60.02001
374.5622,60.08336
375.0443,60.40419
375.5265,61.44151
376.0086,62.83866
376.4907,63.97421
376.9728,64.46658
377.4549,64.73666
377.937,65.78882
378.4192,67.89642
378.9013,70.01789
379.3834,72.15701
379.8655,74.02703
380.3476,75.30154
380.8297,75.92252
381.3119,76.29588
381.794,76.94216
382.2761,77.84746
382.7582,78.1375
383.2403,77.23589
383.7224,76.23116
384.2046,75.68997
384.6867,75.62718
385.1688,76.05427
385.6509,77.32869
386.133,79.03679
386.6151,80.09581
387.0973,80.24339
387.5794,80.66885
388.0615,81.72713
388.5436,83.60986
389.0257,86.79694
389.5078,91.69234
389.99,97.34013
390.4721,102.8381
390.9542,108.2942
391.4363,114.3922
391.9184,121.3991
392.4005,129.1315
392.8827,137.5111
393.3648,146.6095
393.8469,155.3615
394.329,165.3012
394.8111,173.9997
395.2932,177.2013
395.7754,174.1434
396.2575,167.4214
396.7396,157.7713
397.2217,145.7101
397.7038,136.7301
398.1859,133.2737
398.6681,130.9366
399.1501,127.402
399.6323,122.6301
400.1144,116.6316
400.5965,109.1903
401.0786,100.8853
401.5607,93.46037
402.0428,86.67952
402.525,80.97526
403.0071,76.64071
403.4892,73.31853
403.9713,70.82256
404.4534,69.06656
404.9355,67.62425
405.4177,65.97581
405.8998,64.00638
406.3819,62.51283
406.864,61.48534
407.3461,60.87537
407.8282,60.8684
408.3104,61.26514
408.7925,61.65652
409.2746,61.80595
409.7567,61.71002
410.2388,61.34455
410.7209,60.10074
411.2031,59.39775
411.6852,59.69608
412.1673,60.38581
412.6494,60.96411
413.1315,61.26951
413.6136,61.33514
414.0958,61.09379
414.5779,60.32922
415.06,60.13053
415.5421,61.41685
416.0242,62.42217
416.5063,62.07401
416.9885,60.86611
417.4706,60.06178
417.9527,60.52808
418.4348,61.92558
418.9169,63.14718
419.399,64.2249
419.8812,65.02816
420.3633,65.42116
420.8454,65.58907
421.3275,65.68784
421.8096,65.75562
422.2917,65.72469
422.7739,65.45614
423.256,64.96674
423.7381,64.5752
424.2202,64.21127
424.7023,64.13828
425.1844,64.73492
425.6666,65.805
426.1487,66.63409
426.6308,66.65117
427.1129,66.37914
427.595,66.73233
428.0771,67.76712
428.5593,68.49977
429.0414,68.09171
429.5235,67.21127
430.0056,67.3575
430.4877,68.95427
430.9698,70.62405
431.452,71.62406
431.9341,72.22208
432.4162,72.92599
432.8983,73.84818
433.3804,74.96136
433.8625,76.28679
434.3447,77.86333
434.8268,79.31316
435.3089,80.34898
435.791,81.48842
436.2731,83.26888
436.7552,85.48892
437.2374,87.37328
437.7195,88.39967
438.2016,88.89393
438.6837,90.08617
439.1658,92.3199
439.6479,94.83954
440.1301,97.57198
440.6122,100.5762
441.0943,103.9035
441.5764,107.5478
442.0585,111.4715
442.5406,115.5469
443.0227,119.6945
443.5049,124.6545
443.987,130.1729
444.4691,136.784
444.9512,144.8392
445.4333,154.0359
445.9154,163.8918
446.3976,174.0362
446.8797,184.9676
447.3618,197.8353
447.8439,212.895
448.326,229.1255
448.8081,247.3459
449.2903,266.061
449.7724,284.6335
450.2545,302.9118
450.7366,320.7081
451.2187,337.6523
451.7008,353.9534
452.183,369.8128
452.6651,384.6015
453.1472,400.349
453.6293,417.0051
454.1114,435.6977
454.5935,458.7726
455.0757,487.4565
455.5578,519.0004
456.0399,549.6666
456.522,580.7983
457.0041,619.1118
457.4862,667.1578
457.9684,721.8008
458.4505,779.464
458.9326,839.6935
459.4147,905.2681
459.8968,974.8137
460.3789,1051.043
460.8611,1137.315
461.3432,1232.984
461.8253,1334.626
462.3074,1442.013
462.7895,1552.69
463.2716,1658.99
463.7538,1773.964
464.2359,1868.103
464.718,1944.658
465.2001,1996.069
465.6822,2014.796
466.1643,1999.434
466.6465,1951.971
467.1286,1872.62
467.6107,1758.045
468.0928,1636.845
468.5749,1500.989
469.057,1366.859
469.5392,1234.568
470.0213,1108.219
470.5034,993.9593
470.9855,894.3962
471.4676,807.5566
471.9497,730.5448
472.4319,663.9539
472.914,605.0342
473.3961,556.4146
473.8782,513.7408
474.3603,475.4056
474.8424,441.2322
475.3246,410.2108
475.8067,381.8932
476.2888,356.5342
476.7709,334.6641
477.253,316.603
477.7351,300.5903
478.2173,286.262
478.6994,273.4064
479.1815,261.6707
479.6636,251.1893
480.1457,241.3565
480.6278,231.9422
481.11,222.9611
481.592,214.4353
482.0742,206.3732
482.5563,198.639
483.0384,190.9196
483.5205,183.3104
484.0026,176.9789
484.4847,172.8665
484.9669,168.9373
485.449,164.1015
485.9311,158.918
486.4132,154.453
486.8953,151.086
487.3774,148.3542
487.8596,145.5572
488.3417,142.7091
488.8238,139.6855
489.3059,136.4289
489.788,133.0918
490.2701,129.5405
490.7523,125.9869
491.2344,122.876
491.7165,120.5128
492.1986,118.6981
492.6807,116.8644
493.1628,114.899
493.645,113.2419
494.1271,112.5634
494.6092,111.8175
495.0913,110.1254
495.5734,107.5362
496.0555,104.9918
496.5377,103.3053
497.0198,102.1597
497.5019,100.5996
497.984,98.46368
498.4661,96.58514
498.9482,95.49346
499.4304,94.92778
499.9125,94.3817
500.3946,93.85856
500.8767,93.27946
501.3588,92.73651
501.8409,92.07404
502.3231,90.92037
502.8052,89.19698
503.2873,87.31572
503.7694,85.61456
504.2515,84.08877
504.7336,82.91634
505.2158,82.33323
505.6979,81.79689
506.18,80.93459
506.6621,80.04755
507.1442,79.75189
507.6263,80.23608
508.1085,80.87731
508.5906,80.63966
509.0727,79.14927
509.5548,78.13106
510.0369,77.91698
510.519,77.84777
511.0012,77.74001
511.4833,77.58514
511.9654,77.44621
512.4475,77.39011
512.9296,77.24461
513.4117,76.60879
513.8939,75.39497
514.376,74.34476
514.8581,73.61562
515.3402,73.11312
515.8223,72.88388
516.3044,72.85766
516.7866,72.59311
517.2687,71.8084
517.7508,70.7391
518.2329,69.5348
518.715,68.23447
519.1971,67.27464
519.6793,66.91772
520.1614,66.9566
520.6435,66.96033
521.1256,66.93167
521.6077,66.87073
522.0898,66.90399
522.572,66.81737
523.0541,66.30064
523.5362,65.43189
524.0183,64.64609
524.5004,64.27889
524.9825,64.23069
525.4647,63.97478
525.9468,63.38689
526.4289,62.75674
526.911,61.93131
527.3931,61.19583
527.8752,60.78132
528.3574,60.71147
528.8395,60.88314
529.3216,61.35883
529.8037,62.02235
530.2858,62.09139
530.7679,61.30519
531.2501,60.52804
531.7322,59.99105
532.2143,59.72311
532.6964,59.90539
533.1785,60.65443
533.6606,61.22305
534.1428,60.92197
534.6249,60.13213
535.107,59.72029
535.5891,59.82267
536.0712,59.94208
536.5533,59.694
537.0355,59.13763
537.5176,58.68378
537.9997,58.32595
538.4818,58.06565
538.9639,57.94181
539.446,57.89673
539.9282,57.88398
540.4103,57.88249
540.8924,57.84863
541.3745,57.73743
541.8566,57.54806
542.3387,57.31036
542.8209,57.05838
543.3029,56.71103
543.785,56.06772
544.2672,55.41072
544.7493,55.0713
545.2314,55.1314
545.7135,55.39159
546.1956,55.80246
546.6777,56.3148
547.1599,56.24245
547.642,55.28448
548.1241,54.30718
548.6062,53.89053
549.0883,53.80414
549.5704,53.71968
550.0526,53.63792
550.5347,53.43717
551.0168,52.80509
551.4989,52.03971
551.981,51.95241
552.4631,52.73318
552.9453,53.36601
553.4274,52.75634
553.9095,50.89532
554.3916,49.96909
554.8737,50.77416
555.3558,51.41201
555.838,51.15788
556.3201,50.54173
556.8022,50.17704
557.2843,50.24334
557.7664,50.64391
558.2485,51.43277
558.7307,52.65046
559.2128,52.97259
559.6949,51.70127
560.177,50.51172
560.6591,50.06498
561.1412,49.96043
561.6234,49.72158
562.1055,49.22685
562.5876,48.63247
563.0697,47.77414
563.5518,46.90635
564.0339,47.16993
564.5161,48.97169
564.9982,50.47636
565.4803,50.21512
565.9624,48.54144
566.4445,47.25128
566.9266,46.28617
567.4088,45.77897
567.8909,46.04889
568.373,46.6729
568.8551,47.16782
569.3372,47.42818
569.8193,47.53698
570.3015,47.54574
570.7836,47.46468
571.2657,47.49425
571.7478,47.75875
572.2299,47.96908
572.712,48.1034
573.1942,48.15321
573.6763,48.08013
574.1584,47.89439
574.6405,47.70054
575.1226,47.66674
575.6047,47.71032
576.0869,47.40393
576.569,46.62547
577.0511,46.01217
577.5332,45.91441
578.0153,46.14695
578.4974,46.38569
578.9796,46.60917
579.4617,46.91291
579.9438,47.55437
580.4259,48.16372
580.908,48.17442
581.3901,47.65145
581.8723,47.30323
582.3544,47.6455
582.8365,48.35786
583.3186,48.32269
583.8007,46.46104
584.2828,45.50847
584.765,46.08199
585.2471,47.03596
585.7292,47.8464
586.2113,48.36609
586.6934,48.4624
587.1755,47.97995
587.6577,47.16066
588.1398,46.51238
588.6219,46.02595
589.104,45.78934
589.5861,45.97585
590.0682,46.25578
590.5504,46.32561
591.0325,46.21038
591.5146,46.0641
591.9967,45.76802
592.4788,45.59861
592.9609,46.05983
593.4431,46.86262
593.9252,47.04398
594.4073,46.21564
594.8894,45.05853
595.3715,44.52651
595.8536,44.76908
596.3358,44.97591
596.8179,45.31406
597.3,45.43908
597.7821,44.99483
598.2642,44.34681
598.7463,44.07887
599.2285,44.37588
599.7106,44.771
600.1927,44.54009
600.6748,43.72375
601.1569,43.5784
601.639,44.48935
602.1212,45.36303
602.6033,45.41516
603.0854,45.079
603.5675,45.02901
604.0496,45.46695
604.5317,45.82511
605.0139,45.79852
605.496,45.52527
605.9781,45.15225
606.4602,44.71844
606.9423,44.31633
607.4244,44.01034
607.9066,43.79534
608.3887,43.64706
608.8708,43.61362
609.3529,43.58327
609.835,43.61656
610.3171,43.59958
610.7993,43.38574
611.2814,43.03736
611.7635,42.76231
612.2456,42.67782
612.7277,42.76984
613.2098,43.11936
613.692,43.77718
614.1741,44.06344
614.6562,43.58345
615.1383,42.98094
615.6204,43.02033
616.1025,43.57226
616.5847,43.83966
617.0668,43.39622
617.5489,42.88334
618.031,42.72029
618.5131,42.78394
618.9952,42.82528
619.4774,42.76803
619.9595,42.65549
620.4416,42.52539
620.9237,42.3697
621.4058,42.31671
621.8879,42.56536
622.3701,42.66908
622.8522,42.39178
623.3343,42.00932
623.8164,41.8184
624.2985,41.86985
624.7806,41.97592
625.2628,41.8286
625.7448,41.64112
626.2269,42.22939
626.709,43.71594
627.1912,44.63913
627.6733,44.14231
628.1554,42.8832
628.6375,42.04116
629.1196,41.6158
629.6017,41.4612
630.0839,41.63766
630.566,42.00354
631.0481,42.6424
631.5302,43.37638
632.0123,43.81401
632.4944,43.77355
632.9766,43.47964
633.4587,43.27861
633.9408,43.16056
634.4229,43.20826
634.905,43.7265
635.3871,44.00128
635.8693,43.51279
636.3514,42.67838
636.8335,42.14126
637.3156,42.08889
637.7977,42.1847
638.2798,42.2767
638.762,42.32661
639.2441,42.18793
639.7262,41.85889
640.2083,41.67879
640.6904,41.9109
641.1725,42.40574
641.6547,42.6611
642.1368,42.31216
642.6189,42.26395
643.101,42.91027
643.5831,43.50582
644.0652,43.49949
644.5474,43.04456
645.0295,42.61761
645.5116,42.46783
645.9937,42.46741
646.4758,42.43346
646.9579,42.366
647.4401,42.26313
647.9222,42.12048
648.4043,41.9526
648.8864,41.77913
649.3685,41.58858
649.8506,41.33929
650.3328,40.89523
650.8149,40.59858
651.297,40.72588
651.7791,40.99646
652.2612,41.03704
652.7433,40.83897
653.2255,40.66866
653.7076,40.7203
654.1897,40.95829
654.6718,41.30959
655.1539,41.99357
655.636,42.25328
656.1182,41.68798
656.6003,40.91151
657.0824,39.96872
657.5645,39.06864
658.0466,38.80667
658.5287,39.72016
659.0109,40.84545
659.493,41.27722
659.9751,41.19183
660.4572,41.09189
660.9393,41.08654
661.4214,40.99105
661.9036,40.60939
662.3857,39.98021
662.8678,39.52883
663.3499,39.14014
663.832,39.09513
664.3141,39.80455
664.7963,40.57205
665.2784,40.75542
665.7605,40.4471
666.2426,40.25623
666.7247,40.64742
667.2068,41.21947
667.689,41.11135
668.1711,40.35159
668.6532,39.96888
669.1353,40.27562
669.6174,40.81758
670.0995,41.26739
670.5817,41.60115
671.0638,41.67572
671.5459,41.25082
672.028,40.85966
672.5101,40.66036
672.9922,40.58736
673.4744,40.6441
673.9565,40.77494
674.4386,40.74503
674.9207,40.29295
675.4028,39.68582
675.8849,39.93905
676.3671,41.34318
676.8492,42.28696
677.3313,42.07584
677.8134,41.74822
678.2955,42.40905
678.7776,43.68864
679.2598,44.20387
679.7419,42.75859
680.224,41.60739
680.7061,42.55546
681.1882,44.47072
681.6703,45.55947
682.1525,45.53913
682.6346,45.18163
683.1167,45.06871
683.5988,45.20112
684.0809,45.61224
684.563,46.48064
685.0452,47.23489
685.5273,47.68627
686.0094,48.09787
686.4915,48.64339
686.9736,49.27536
687.4557,49.81938
687.9379,50.11781
688.42,50.46905
688.9021,51.20173
689.3842,52.17669
689.8663,53.00236
690.3484,53.62168
690.8306,54.41714
691.3127,55.72692
691.7948,57.44078
692.2769,59.02966
692.759,60.39733
693.2411,61.79342
693.7233,63.27485
694.2054,64.73785
694.6875,66.20935
695.1696,67.61268
695.6517,68.82941
696.1339,69.89146
696.616,70.49267
697.0981,70.09795
697.5802,68.94554
698.0623,67.94453
698.5444,67.2657
699.0266,66.27119
699.5087,64.45039
699.9908,62.00739
700.4729,59.74604
700.955,57.921
701.4371,55.89848
701.9193,53.16069
702.4014,50.69514
702.8835,49.21219
703.3656,48.46548
703.8477,47.84225
704.3298,47.0901
704.812,46.34792
705.2941,45.82887
705.7762,45.4861
706.2583,45.04733
706.7404,44.45858
707.2225,44.0028
707.7046,43.90863
708.1867,44.00816
708.6688,43.84228
709.1509,43.20131
709.6331,42.84367
710.1152,43.23096
710.5973,43.51094
711.0794,42.86292
711.5615,41.83223
712.0436,41.60112
712.5258,42.57114
713.0079,43.59375
713.49,43.0481
713.9721,41.30701
714.4542,40.56108
714.9363,41.03861
715.4185,41.44374
715.9006,41.07085
716.3827,40.4254
716.8648,40.4411
717.3469,41.26354
717.829,41.79356
718.3112,41.76236
718.7933,41.60789
719.2754,41.62435
719.7575,41.62379
720.2396,41.18557
720.7217,40.2734
721.2039,39.47799
721.686,39.41024
722.1681,39.91909
722.6502,40.55696
723.1323,41.41084
723.6144,41.60104
724.0966,40.43461
724.5787,39.11592
725.0608,39.24424
725.5429,40.78417
726.025,41.78946
726.5071,41.92075
726.9893,41.7918
727.4714,41.5336
727.9535,41.18603
728.4356,40.68538
728.9177,40.10141
729.3998,39.73635
729.882,39.86491
730.3641,40.25786
730.8462,40.34498
731.3283,40.10994
731.8104,40.0839
732.2925,40.50406
732.7747,40.82864
733.2568,40.49643
733.7389,39.66793
734.221,39.21672
734.7031,39.32888
735.1852,39.52864
735.6674,39.81414
736.1495,40.07569
736.6316,40.30451
737.1137,40.42736
737.5958,40.21368
738.0779,39.51201
738.5601,38.77377
739.0422,38.71493
739.5243,39.26994
740.0064,39.86827
740.4885,40.51991
740.9706,40.94616
741.4528,40.91743
741.9349,40.61525
742.417,40.44629
742.8991,40.47412
743.3812,40.40492
743.8633,40.10959
744.3455,39.82211
744.8276,39.69412
745.3097,39.64473
745.7918,39.49297
746.2739,39.20878
746.756,39.02458
747.2382,39.29931
747.7203,39.82703
748.2024,39.85946
748.6845,39.37873
749.1666,39.24128
749.6487,39.89029
750.1309,40.58755
750.613,40.33174
751.0951,39.03538
751.5772,38.51563
752.0593,39.40855
752.5414,40.18399
753.0236,40.33844
753.5057,40.35677
753.9878,40.76211
754.4699,41.49127
754.952,42.09046
755.4341,42.34123
755.9163,42.26168
756.3984,41.69225
756.8805,40.7812
757.3626,40.22719
757.8447,40.15792
758.3268,40.18193
758.809,40.00886
759.2911,39.73564
759.7732,39.69382
760.2553,40.09638
760.7374,40.34492
761.2195,40.25106
761.7017,40.21331
762.1838,40.51026
762.6659,40.95564
763.148,41.26756
763.6301,41.36965
764.1122,41.30308
764.5944,40.99225
765.0765,40.58712
765.5586,40.27883
766.0407,40.08841
766.5228,40.1515
767.0049,40.5447
767.4871,40.87274
767.9692,40.53444
768.4513,39.47727
768.9334,39.06676
769.4155,39.7916
769.8976,40.36634
770.3798,40.23582
770.8619,40.07257
771.344,40.60418
771.8261,41.65412
772.3082,42.20293
772.7903,41.56313
773.2725,40.7668
773.7546,40.45411
774.2367,40.48386
774.7188,40.67498
775.2009,40.98334
775.683,41.45451
776.1652,42.16808
776.6473,42.83428
777.1294,42.60194
777.6115,41.24363
778.0936,40.53914
778.5757,40.84098
779.0579,41.36361
779.54,41.78178
780.0221,42.11588
780.5042,42.35599
780.9863,42.44951
781.4684,42.72208
781.9506,43.41739
782.4327,44.1497
782.9148,44.68629
783.3969,45.08553
783.879,45.39476
784.3611,45.66351
784.8433,46.11609
785.3254,47.1761
785.8075,48.44365
786.2896,48.42333
786.7717,47.08758
787.2538,46.43625
787.736,47.07504
788.2181,48.19891
788.7002,49.14254
789.1823,49.92432
789.6644,50.66782
790.1465,51.56404
790.6286,52.15383
791.1107,51.9207
791.5928,51.81766
792.075,52.68093
792.5571,54.11576
793.0392,55.17312
793.5213,55.46751
794.0034,55.719
794.4855,56.62469
794.9677,57.89106
795.4498,59.01195
795.9319,59.96215
796.414,60.80796
796.8961,61.59091
797.3782,62.17192
797.8604,62.32751
798.3425,62.03802
798.8246,61.7676
799.3067,61.3129
799.7888,61.24291
800.2709,62.41109
800.7531,63.45042
801.2352,63.11752
801.7173,61.66304
802.1994,60.45287
802.6815,60.02095
803.1636,59.64635
803.6458,59.07841
804.1279,58.29423
804.61,57.13577
805.0921,55.72333
805.5742,54.36142
806.0563,53.2071
806.5385,52.42995
807.0206,52.56215
807.5027,53.49781
807.9848,53.62219
808.4669,52.67996
808.949,51.96481
809.4312,52.27964
809.9133,52.79783
810.3954,52.16359
810.8775,50.10633
811.3596,48.67222
811.8417,48.14944
812.3239,47.87591
812.806,47.88056
813.2881,47.90826
813.7702,47.74378
814.2523,47.37749
814.7344,46.88196
815.2166,46.2123
815.6987,45.6019
816.1808,45.32365
816.6629,45.28776
817.145,45.39161
817.6271,45.57792
818.1093,45.51046
818.5914,44.96376
819.0735,44.25325
819.5556,44.03936
820.0377,44.44169
820.5198,44.56833
821.002,44.28023
821.4841,43.98384
821.9662,44.01154
822.4483,43.97248
822.9304,43.17735
823.4125,41.67518
823.8947,40.98011
824.3768,42.18692
824.8589,43.30607
825.341,43.44257
825.8231,43.0609
826.3052,42.50078
826.7874,41.93766
827.2695,41.63977
827.7516,41.76865
828.2337,42.16802
828.7158,42.77497
829.1979,43.47709
829.6801,43.73982
830.1622,43.51369
830.6443,43.25043
831.1264,43.17801
831.6085,43.16612
832.0906,42.97085
832.5728,42.53123
833.0549,42.36448
833.537,42.76631
834.0191,43.0149
834.5012,42.61934
834.9833,42.2772
835.4655,42.8588
835.9476,44.10286
836.4297,44.60494
836.9118,43.36523
837.3939,42.22437
837.876,42.37215
838.3582,43.03084
838.8403,43.29811
839.3224,43.20646
839.8045,43.23922
840.2866,43.62469
840.7687,44.1354
841.2509,44.49938
841.733,44.71942
842.2151,44.78628
842.6972,44.69366
843.1793,44.57523
843.6614,44.52829
844.1436,44.31496
844.6257,43.55835
845.1078,42.28097
845.5899,41.55028
846.072,41.61223
846.5541,41.88272
847.0363,42.65034
847.5184,43.28358
848.0005,43.17617
848.4826,42.66863
848.9647,42.63071
849.4468,43.43295
849.929,44.03454
850.4111,43.60458
850.8932,42.91753
851.3753,42.77283
851.8574,43.02387
852.3395,43.25294
852.8217,43.31705
853.3038,43.2406
853.7859,42.97477
854.268,42.64918
854.7501,42.87456
855.2322,43.65091
855.7144,43.52815
856.1965,41.96714
856.6786,40.61603
857.1607,40.86803
857.6428,42.1465
858.1249,42.55934
858.6071,41.42243
859.0892,40.90375
859.5713,41.6365
860.0534,42.22967
860.5355,42.18432
861.0176,41.73914
861.4998,40.95853
861.9819,39.92196
862.464,39.53115
862.9461,40.85201
863.4282,42.17612
863.9103,42.1986
864.3925,41.56991
864.8746,41.10454
865.3567,40.94064
865.8388,41.01672
866.3209,41.33051
866.803,41.5984
867.2852,41.16879
867.7673,40.25755
868.2494,40.18208
868.7315,41.04959
869.2136,41.6572
869.6957,41.49657
870.1779,40.87774
870.66,40.10723
871.1421,39.17618
871.6242,38.97268
872.1063,40.13412
872.5884,40.90025
873.0705,40.51874
873.5526,40.09037
874.0347,40.31623
874.5168,40.99642
874.999,41.67336
875.4811,42.4165
875.9632,42.70078
876.4453,42.11723
876.9274,41.22473
877.4095,40.18888
877.8917,39.23206
878.3738,38.70764
878.8559,38.66085
879.338,38.74717
879.8201,38.67358
880.3022,38.61069
880.7844,39.02661
881.2665,39.70541
881.7486,39.69414
882.2307,38.89074
882.7128,38.28321
883.1949,38.53011
883.6771,39.20896
884.1592,39.37916
884.6413,38.91577
885.1234,38.95495
885.6055,39.81826
886.0876,40.37482
886.5698,40.06236
887.0519,39.44986
887.534,39.05241
888.0161,38.88417
888.4982,39.12362
888.9803,40.47473
889.4625,41.24665
889.9446,40.86575
890.4267,40.08638
890.9088,39.17743
891.3909,38.33616
891.873,37.83411
892.3552,37.7443
892.8373,37.91981
893.3194,38.65123
893.8015,39.27911
894.2836,38.79179
894.7657,37.73582
895.2479,37.37237
895.73,37.88219
896.2121,38.42532
896.6942,38.36467
897.1763,37.99973
897.6584,37.92562
898.1406,38.11547
898.6227,38.39051
899.1048,38.77103
899.5869,38.69152
900.069,37.74461
900.5511,36.59555
901.0333,36.24976
901.5154,36.74414
901.9975,37.23721
902.4796,37.91124
902.9617,38.24278
903.4438,37.80365
903.926,37.31587
904.4081,37.45125
904.8902,37.8966
905.3723,37.75684
905.8544,36.57703
906.3365,35.85031
906.8187,36.32813
907.3008,36.94978
907.7829,37.00428
908.265,36.84808
908.7471,37.16605
909.2292,37.94817
909.7114,38.34913
910.1935,37.60891
910.6756,36.69535
911.1577,36.80404
911.6398,37.35631
912.1219,37.16005
912.6041,36.27051
913.0862,35.62335
913.5683,35.66215
914.0504,35.89602
914.5325,35.56347
915.0146,34.8358
915.4968,34.8058
915.9789,35.5042
916.461,35.98037
916.9431,35.95803
917.4252,35.86784
917.9073,36.10769
918.3895,36.52655
918.8716,36.53843
919.3537,35.85501
919.8358,35.50285
920.3179,35.62853
920.8,35.87934
921.2822,36.27122
921.7643,36.61909
922.2464,36.68932
922.7285,36.48918
923.2106,36.27546
923.6927,36.00148
924.1749,35.82838
924.657,35.83038
925.1391,35.92516
925.6212,36.15956
926.1033,36.40614
926.5854,36.40751
927.0676,36.08386
927.5497,35.69345
928.0318,35.36028
928.5139,35.0856
928.996,34.89865
929.4781,34.75875
929.9603,34.5661
930.4424,34.32334
930.9245,34.13306
931.4066,34.05412
931.8887,34.09612
932.3708,34.40092
932.853,34.84628
933.3351,34.87452
933.8172,34.47733
934.2993,33.96832
934.7814,33.43519
935.2635,33.18446
935.7457,33.65768
936.2278,34.6419
936.7099,34.81385
937.192,33.96171
937.6741,33.17326
938.1563,32.41931
938.6384,32.09403
939.1205,32.60494
939.6026,33.52424
940.0847,34.123
940.5668,34.38429
941.049,34.42005
941.5311,33.95084
942.0132,33.64748
942.4953,33.71542
942.9774,33.9193
943.4595,34.12495
943.9417,34.3214
944.4238,34.53787
944.9059,34.84143
945.388,34.92907
945.8701,34.54448
946.3522,34.06837
946.8344,33.71111
947.3165,33.44393
947.7986,33.21317
948.2807,33.01083
948.7628,32.86385
949.2449,32.82377
949.7271,32.74718
950.2092,32.31926
950.6913,31.86756
951.1734,32.13211
951.6555,32.84699
952.1376,32.90199
952.6198,31.98408
953.1019,31.09504
953.584,31.25356
954.0661,32.0471
954.5482,32.59624
955.0303,32.88485
955.5124,32.63961
955.9945,31.82575
956.4766,31.35381
956.9587,31.74515
957.4409,32.5624
957.923,33.17371
958.4051,33.57814
958.8872,33.40094
959.3693,32.39837
959.8514,31.90503
960.3336,32.39473
960.8157,33.03156
961.2978,33.22622
961.7799,33.0844
962.262,32.90525
962.7441,32.73389
963.2263,32.37734
963.7084,31.30679
964.1905,30.77778
964.6726,31.64185
965.1547,32.74359
965.6368,33.06879
966.119,32.74714
966.6011,32.49989
967.0832,32.54119
967.5653,32.40457
968.0474,31.75057
968.5295,31.1518
969.0117,30.95478
969.4938,31.0024
969.9759,31.16208
970.458,31.36116
970.9401,31.34594
971.4222,30.83961
971.9044,30.35987
972.3865,30.19336
972.8686,30.24907
973.3507,30.61991
973.8328,31.08762
974.3149,31.11759
974.7971,30.60098
975.2792,30.17154
975.7613,30.44281
976.2434,30.95159
976.7255,31.14077
977.2076,31.07299
977.6898,30.79273
978.1719,30.37374
978.654,30.05605
979.1361,29.9524
979.6182,30.06774
980.1003,30.48035
980.5825,31.09106
981.0646,31.67214
981.5467,32.17533
982.0288,32.05245
982.5109,31.19861
982.993,30.5569
983.4752,30.78196
983.9573,31.39599
984.4394,31.43137
984.9215,30.88166
985.4036,30.7706
985.8857,31.19034
986.3679,31.51306
986.85,31.5822
987.3321,31.47679
987.8142,31.19164
988.2963,30.84594
988.7784,30.87061
989.2606,31.5167
989.7427,31.6034
990.2248,30.75487
990.7069,30.06871
991.189,29.89578
991.6711,30.01257
992.1533,30.3542
992.6354,30.83312
993.1175,30.90915
993.5996,30.21093
994.0817,29.7805
994.5638,29.72414
995.046,29.82605
995.5281,30.12667
996.0102,30.45913
996.4923,30.62574
996.9744,30.6444
997.4565,30.71708
997.9387,31.04113
998.4208,31.15431
998.9029,30.7593
999.385,30.30797
999.8671,30.01411
1000.349,29.88235
1000.831,29.95333
1001.313,30.19666
1001.796,30.3625
1002.278,30.23588
1002.76,30.17866
1003.242,30.51776
1003.724,30.90246
1004.206,30.99052
1004.688,30.87165
1005.17,30.77745
1005.653,30.76198
1006.135,30.72453
1006.617,30.7187
1007.099,30.50502
1007.581,29.39418
1008.063,28.22573
1008.545,28.48673
1009.027,29.77824
1009.509,30.57873
1009.992,30.38351
1010.474,30.068
1010.956,30.50274
1011.438,31.14723
1011.92,31.24579
1012.402,30.89688
1012.884,30.11422
1013.366,29.07528
1013.849,28.46459
1014.331,28.57597
1014.813,29.0652
1015.295,29.68642
1015.777,30.28802
1016.259,30.40131
1016.741,30.13553
1017.223,30.01054
1017.705,30.0922
1018.188,30.17906
1018.67,30.17166
1019.152,30.04333
1019.634,29.67794
1020.116,29.18298
1020.598,29.18238
1021.08,29.64911
1021.562,29.78117
1022.044,29.41606
1022.527,29.17901
1023.009,29.43847
1023.491,29.98655
1023.973,30.5349
1024.455,31.07247
1024.937,31.45089
1025.419,31.70414
1025.901,31.39229
1026.384,30.26792
1026.866,29.30898
1027.348,29.12519
1027.83,29.48775
1028.312,30.06644
1028.794,30.89742
1029.276,31.01508
1029.758,30.06017
1030.24,29.74385
1030.723,30.73523
1031.205,31.57423
1031.687,31.1803
1032.169,30.14413
1032.651,29.61664
1033.133,29.60125
1033.615,30.14769
1034.097,31.90188
1034.579,32.75433
1035.062,31.76115
1035.544,30.60789
1036.026,30.41492
1036.508,30.81587
1036.99,31.10148
1037.472,31.31281
1037.954,31.16081
1038.436,30.15528
1038.919,29.58174
1039.401,29.99575
1039.883,30.53814
1040.365,30.68023
1040.847,30.55832
1041.329,30.42798
1041.811,30.26098
1042.293,30.23364
1042.776,30.52134
1043.258,30.70723
1043.74,30.73734
1044.222,30.62133
1044.704,30.1834
1045.186,29.6641
1045.668,29.56565
1046.15,29.98536
1046.632,30.35238
1047.115,30.474
1047.597,30.71873
1048.079,31.40383
1048.561,32.01702
1049.043,32.19823
1049.525,32.06005
1050.007,31.76074
1050.489,31.28256
1050.971,31.09212
1051.454,31.45045
1051.936,31.87521
1052.418,32.41685
1052.9,32.7891
1053.382,32.64457
1053.864,32.24082
1054.346,32.04965
1054.828,32.14071
1055.311,32.28121
1055.793,32.46909
1056.275,32.61653
1056.757,32.49836
1057.239,32.51793
1057.721,33.26869
1058.203,34.24825
1058.685,34.37121
1059.167,33.5088
1059.65,33.28192
1060.132,34.8415
1060.614,36.28505
1061.096,36.81425
1061.578,37.03681
1062.06,37.26572
1062.542,37.59157
1063.024,38.01335
1063.506,38.56054
1063.989,39.54094
1064.471,41.6619
1064.953,43.39634
1065.435,43.89273
1065.917,43.98796
1066.399,44.31673
1066.881,44.68163
1067.363,44.6893
1067.846,44.30305
1068.328,43.81173
1068.81,43.5228
1069.292,42.79743
1069.774,40.85409
1070.256,38.87107
1070.738,37.70726
1071.22,37.08204
1071.703,36.53146
1072.185,35.99849
1072.667,35.6491
1073.149,35.63251
1073.631,35.60392
1074.113,35.50365
1074.595,35.22765
1075.077,34.50855
1075.559,33.68838
1076.042,33.12602
1076.524,32.90052
1077.006,33.10185
1077.488,33.96516
1077.97,34.59214
1078.452,34.20768
1078.934,33.84046
1079.416,34.48389
1079.898,35.33527
1080.38,35.18307
1080.863,34.29423
1081.345,34.04702
1081.827,35.03337
1082.309,35.8195
1082.791,35.62712
1083.273,35.19835
1083.755,35.00025
1084.237,34.78999
1084.72,34.12907
1085.202,33.23615
1085.684,32.77779
1086.166,32.97085
1086.648,33.16938
1087.13,33.23613
1087.612,33.07147
1088.094,32.56548
1088.577,31.8532
1089.059,30.67878
1089.541,29.52091
1090.023,29.52639
1090.505,30.93313
1090.987,31.93506
1091.469,31.70811
1091.951,31.14349
1092.433,30.37532
1092.916,29.65746
1093.398,29.05993
1093.88,28.71684
1094.362,29.01153
1094.844,29.91181
1095.326,30.37297
1095.808,29.7519
1096.29,29.10801
1096.772,28.63228
1097.255,28.40787
1097.737,28.57166
1098.219,28.96349
1098.701,29.48788
1099.183,30.06339
1099.665,30.34319
1100.147,30.11304
1100.629,29.86386
1101.112,29.70845
1101.594,29.5783
1102.076,29.49311
1102.558,29.37434
1103.04,29.02103
1103.522,28.55761
1104.004,28.45712
1104.486,28.86447
1104.969,29.38821
1105.451,30.4904
1105.933,31.0049
1106.415,29.89523
1106.897,28.62151
1107.379,28.44279
1107.861,29.00141
1108.343,29.4302
1108.825,29.76159
1109.307,29.4031
1109.79,27.10868
1110.272,25.82282
1110.754,27.16058
1111.236,28.58667
1111.718,28.32628
1112.2,27.29671
1112.682,27.07751
1113.164,27.73781
1113.647,28.10065
1114.129,27.87165
1114.611,27.83851
1115.093,28.30091
1115.575,28.62492
1116.057,28.44297
1116.539,28.08148
1117.021,27.91519
1117.504,27.91321
1117.986,27.84069
1118.468,27.62385
1118.95,27.50471
1119.432,27.43504
1119.914,27.59372
1120.396,28.23461
1120.878,28.78881
1121.36,28.69212
1121.843,28.19333
1122.325,28.05752
1122.807,28.39478
1123.289,28.39007
1123.771,27.90102
1124.253,27.54919
1124.735,27.45949
1125.217,27.5535
1125.699,27.79243
1126.182,28.17433
1126.664,28.76106
1127.146,29.51653
1127.628,29.70376
1128.11,29.24256
1128.592,28.95468
1129.074,28.97777
1129.556,28.90609
1130.039,28.52465
1130.521,28.16445
1131.003,28.21319
1131.485,28.57313
1131.967,28.95777
1132.449,29.35512
1132.931,29.49513
1133.413,29.37346
1133.896,29.43267
1134.378,29.80716
1134.86,29.94886
1135.342,29.3926
1135.824,28.56149
1136.306,28.13659
1136.788,28.1036
1137.27,28.56806
1137.752,29.39456
1138.234,29.91735
1138.717,30.05169
1139.199,30.17997
1139.681,30.49955
1140.163,30.83496
1140.645,31.0622
1141.127,31.10946
1141.609,30.60775
1142.091,29.9215
1142.574,29.9425
1143.056,30.56675
1143.538,31.10129
1144.02,31.34803
1144.502,31.69015
1144.984,32.46173
1145.466,33.29395
1145.948,33.82255
1146.431,34.17216
1146.913,34.45977
1147.395,34.70771
1147.877,34.81626
1148.359,34.88492
1148.841,35.36041
1149.323,36.49361
1149.805,37.66422
1150.287,38.51196
1150.77,39.22379
1151.252,39.56527
1151.734,40.14123
1152.216,41.89215
1152.698,44.33
1153.18,46.25236
1153.662,47.40809
1154.144,48.45879
1154.626,49.58111
1155.109,50.70724
1155.591,51.4106
1156.073,52.55318
1156.555,54.86631
1157.037,57.81362
1157.519,60.58743
1158.001,63.27182
1158.483,66.78296
1158.966,72.04451
1159.448,76.39121
1159.93,79.46939
1160.412,81.88438
1160.894,83.62886
1161.376,85.00238
1161.858,86.60747
1162.34,87.76828
1162.822,86.85063
1163.305,83.63511
1163.787,80.77328
1164.269,78.78549
1164.751,75.5193
1165.233,70.27528
1165.715,64.95854
1166.197,60.32587
1166.679,56.34107
1167.161,52.99175
1167.644,50.20431
1168.126,47.62149
1168.608,45.23846
1169.09,43.25488
1169.572,41.69437
1170.054,40.16016
1170.536,38.54448
1171.018,37.2727
1171.5,36.66912
1171.983,36.35415
1172.465,35.74633
1172.947,34.91739
1173.429,33.99765
1173.911,33.07017
1174.393,32.51294
1174.875,32.29503
1175.357,31.98411
1175.84,31.4311
1176.322,30.98131
1176.804,30.99263
1177.286,31.0746
1177.768,30.63484
1178.25,30.03512
1178.732,29.85479
1179.214,29.91027
1179.697,29.74791
1180.179,29.35552
1180.661,29.05009
1181.143,28.96172
1181.625,28.9754
1182.107,29.02384
1182.589,29.14914
1183.071,29.55246
1183.553,29.88997
1184.036,29.87477
1184.518,29.52942
1185.0,28.71121
1185.482,27.47841
1185.964,27.02811
1186.446,28.43601
1186.928,29.33573
1187.41,28.98418
1187.892,28.488
1188.375,28.17693
1188.857,28.04698
1189.339,28.15804
1189.821,28.41751
1190.303,28.54161
1190.785,28.48452
1191.267,28.59553
1191.749,29.05919
1192.232,29.10408
1192.714,28.3798
1193.196,27.96659
1193.678,28.56178
1194.16,29.2274
1194.642,28.70075
1195.124,27.42667
1195.606,27.28714
1196.089,28.22615
1196.571,28.81882
1197.053,28.99297
1197.535,28.58049
1198.017,27.59348
1198.499,27.05261
1198.981,27.62179
1199.463,28.50071
1199.945,28.69653
1200.427,28.40218
1200.91,27.83652
1201.392,27.15266
1201.874,26.54022
1202.356,26.14678
1202.838,26.44378
1203.32,27.43123
1203.802,28.18957
1204.284,28.08149
1204.767,27.90291
1205.249,28.3231
1205.731,28.84901
1206.213,29.32449
1206.695,29.47234
1207.177,28.63442
1207.659,27.28655
1208.141,26.78713
1208.624,27.46487
1209.106,27.86114
1209.588,27.32557
1210.07,26.92952
1210.552,26.91979
1211.034,27.06994
1211.516,27.41291
1211.998,27.73459
1212.48,27.79051
1212.963,27.65379
1213.445,27.60734
1213.927,27.68261
1214.409,27.68198
1214.891,27.58186
1215.373,27.49883
1215.855,27.45622
1216.337,27.40186
1216.819,27.2835
1217.302,27.29273
1217.784,27.72914
1218.266,28.37096
1218.748,28.48615
1219.23,28.1771
1219.712,27.8557
1220.194,27.60189
1220.676,27.75999
1221.159,28.32488
1221.641,28.69686
1222.123,28.54037
1222.605,28.4407
1223.087,29.26722
1223.569,30.17853
1224.051,30.22871
1224.533,29.76184
1225.016,28.91691
1225.498,28.05487
1225.98,27.8707
1226.462,28.35244
1226.944,28.64096
1227.426,28.26
1227.908,28.19828
1228.39,29.04663
1228.872,29.94873
1229.354,30.91985
1229.837,31.43771
1230.319,30.72237
1230.801,29.46953
1231.283,28.9186
1231.765,29.04938
1232.247,29.20678
1232.729,29.36084
1233.211,29.66738
1233.694,30.23332
1234.176,30.57837
1234.658,30.52165
1235.14,30.37677
1235.622,30.36913
1236.104,30.40911
1236.586,30.30243
1237.068,30.13243
1237.551,30.38079
1238.033,30.88723
1238.515,30.89456
1238.997,30.41606
1239.479,29.85871
1239.961,29.37784
1240.443,29.06199
1240.925,28.96688
1241.407,29.06116
1241.89,29.53766
1242.372,29.9552
1242.854,29.76342
1243.336,29.35109
1243.818,29.14045
1244.3,29.13709
1244.782,29.37246
1245.264,29.79164
1245.746,29.71681
1246.229,28.37552
1246.711,27.63674
1247.193,28.39477
1247.675,29.01452
1248.157,28.86204
1248.639,28.48578
1249.121,28.20529
1249.603,28.00956
1250.085,27.87485
1250.568,27.80365
1251.05,27.88074
1251.532,28.1426
1252.014,28.12264
1252.496,27.7765
1252.978,27.36172
1253.46,26.95691
1253.942,26.6999
1254.425,26.67979
1254.907,26.92438
1255.389,27.79628
1255.871,28.71398
1256.353,28.25956
1256.835,27.21143
1257.317,27.12319
1257.799,27.7127
1258.281,27.85401
1258.764,27.41666
1259.246,27.31009
1259.728,28.11033
1260.21,28.54438
1260.692,27.55322
1261.174,26.67293
1261.656,26.64061
1262.138,26.98677
1262.62,27.65815
1263.103,28.27406
1263.585,28.13851
1264.067,27.37293
1264.549,27.01042
1265.031,27.1467
1265.513,27.37405
1265.995,27.71294
1266.477,28.04753
1266.96,28.36127
1267.442,28.63667
1267.924,28.88398
1268.406,28.88001
1268.888,28.23266
1269.37,27.38146
1269.852,27.59838
1270.334,28.31125
1270.817,27.78348
1271.299,26.54659
1271.781,26.36241
1272.263,27.24493
1272.745,27.9731
1273.227,28.0806
1273.709,27.87176
1274.191,27.11544
1274.673,26.66465
1275.156,27.32718
1275.638,28.00168
1276.12,27.82046
1276.602,27.35884
1277.084,27.2947
1277.566,27.53843
1278.048,27.74577
1278.53,27.95528
1279.012,27.69667
1279.495,26.71118
1279.977,26.20961
1280.459,26.36986
1280.941,26.80798
1281.423,27.42216
1281.905,27.9699
1282.387,28.27943
1282.869,28.32087
1283.352,27.94883
1283.834,27.32131
1284.316,26.77526
1284.798,26.31163
