Raman Shift,Intensity
104.516,11002.0
105.908,10981.0
107.3,10982.0
108.691,10985.0
110.082,11080.769
111.473,11239.0
112.864,11362.0
114.254,11623.0
115.644,11882.0
117.034,12060.0
118.424,12086.0
119.813,11877.0
121.203,12161.0
122.592,11937.0
123.981,12065.0
125.369,12036.0
126.758,12058.0
128.146,12103.0
129.534,12170.0
130.922,12376.0
132.309,12277.0
133.696,12448.0
135.083,12348.0
136.47,12498.0
137.857,12561.0
139.243,12657.0
140.63,12599.0
142.016,12632.0
143.401,12694.0
144.787,12789.0
146.172,12785.0
147.557,12903.0
148.942,12905.0
150.327,12907.0
151.711,13004.0
153.096,13022.0
154.48,13173.0
155.863,13114.0
157.247,13287.0
158.63,13254.0
160.013,13314.0
161.396,13331.0
162.779,13359.0
164.161,13419.0
165.544,13449.141
166.926,13549.0
168.308,13552.0
169.689,13640.0
171.07,13718.592
172.452,13708.0
173.833,13799.0
175.213,13911.0
176.594,13906.0
177.974,13890.0
179.354,13928.0
180.734,14123.0
182.114,14064.0
183.493,14180.0
184.872,14310.0
186.251,14327.0
187.63,14438.0
189.008,14486.0
190.387,14743.0
191.765,14895.0
193.143,14964.0
194.52,15250.0
195.898,15274.0
197.275,15454.0
198.652,15661.0
200.029,15766.0
201.405,15824.0
202.782,15625.0
204.158,15523.0
205.534,15532.0
206.909,15509.0
208.285,15261.0
209.66,15398.0
211.035,15421.0
212.41,15318.0
213.784,15565.0
215.159,15524.0
216.533,15694.0
217.907,15766.0
219.281,15708.0
220.654,15632.0
222.027,15588.0
223.4,15680.0
224.773,15656.0
226.146,15674.0
227.518,15664.0
228.891,15753.0
230.263,15770.0
231.634,15938.0
233.006,15873.0
234.377,15970.0
235.748,15967.0
237.119,15922.0
238.49,15928.0
239.86,16206.0
241.231,16041.0
242.601,16334.0
243.97,16225.0
245.34,16359.0
246.709,16345.0
248.079,16418.0
249.448,16636.0
250.816,16600.0
252.185,16832.0
253.553,17051.0
254.921,17158.0
256.289,17467.0
257.657,17799.0
259.024,18299.0
260.391,18614.0
261.758,19075.0
263.125,19264.0
264.492,19712.0
265.858,19946.0
267.224,20102.0
268.59,20370.0
269.956,20284.289
271.321,20046.0
272.687,19983.0
274.052,19584.0
275.416,19195.0
276.781,19116.0
278.146,18642.0
279.51,18407.0
280.874,18327.0
282.237,18057.0
283.601,18114.0
284.964,17805.0
286.327,17685.0
287.69,17797.0
289.053,17562.0
290.416,17457.0
291.778,17713.0
293.14,17400.0
294.502,17642.0
295.863,17268.0
297.225,17526.0
298.586,17482.0
299.947,17485.0
301.308,17656.0
302.668,17488.0
304.029,17389.0
305.389,17645.0
306.749,17754.0
308.108,17587.0
309.468,17756.0
310.827,17654.0
312.186,17617.0
313.545,17536.0
314.903,17700.0
316.262,17757.0
317.62,17665.0
318.978,17828.0
320.336,17878.0
321.693,17889.0
323.051,17971.0
324.408,17961.0
325.765,17881.0
327.121,18064.0
328.478,17934.0
329.834,18032.0
331.19,18102.0
332.546,18188.0
333.902,18177.771
335.257,18213.904
336.612,18134.0
337.967,18225.0
339.322,18221.0
340.677,18252.0
342.031,18487.0
343.385,18396.0
344.739,18542.0
346.093,18463.0
347.446,18316.0
348.799,18457.0
350.153,18643.0
351.505,18624.0
352.858,18630.0
354.21,18635.0
355.563,18749.0
356.915,18633.0
358.267,18769.0
359.618,18847.0
360.969,18779.0
362.321,18936.0
363.672,18958.0
365.022,19013.414
366.373,19211.0
367.723,19164.0
369.073,19264.0
370.423,19375.0
371.773,19428.0
373.122,19364.0
374.471,19611.0
375.821,19800.0
377.169,19666.0
378.518,20013.0
379.866,19826.0
381.215,20011.0
382.563,20267.0
383.91,20216.0
385.258,20110.0
386.605,20288.0
387.952,20544.0
389.299,20352.0
390.646,20518.0
391.992,20409.0
393.339,20556.0
394.685,20688.0
396.031,20734.0
397.376,20973.0
398.722,20738.0
400.067,21016.0
401.412,21109.0
402.757,21027.0
404.101,21382.0
405.446,21308.0
406.79,21284.0
408.134,21324.0
409.478,21352.0
410.821,21418.0
412.165,21411.0
413.508,21170.0
414.851,21449.0
416.193,21264.0
417.536,20948.0
418.878,21041.0
420.22,21170.0
421.562,21077.0
422.904,20810.0
424.245,20983.0
425.586,21068.0
426.927,21062.0
428.268,21299.0
429.609,21165.0
430.949,20912.0
432.289,21086.0
433.629,21372.0
434.969,21060.0
436.309,21124.0
437.648,21032.0
438.987,21365.0
440.326,21158.0
441.665,21106.0
443.003,21071.0
444.342,21408.0
445.68,21276.0
447.018,21280.0
448.355,21328.0
449.693,21238.0
451.03,21346.0
452.367,21231.0
453.704,21469.0
455.041,21084.0
456.377,21361.0
457.713,21279.0
459.049,21362.0
460.385,21325.0
461.721,21457.0
463.056,21752.0
464.391,21536.0
465.726,21448.0
467.061,21857.0
468.395,21638.0
469.73,21612.0
471.064,21938.0
472.398,21641.0
473.731,22060.0
475.065,21760.0
476.398,21859.0
477.731,21960.0
479.064,22184.0
480.397,21937.0
481.729,22176.0
483.062,22179.0
484.394,22139.0
485.725,22306.0
487.057,22192.0
488.389,22430.0
489.72,22441.0
491.051,22308.0
492.382,22467.0
493.712,22520.0
495.043,22444.0
496.373,22444.0
497.703,22380.0
499.032,22708.0
500.362,22516.0
501.691,22689.0
503.02,22757.0
504.349,22692.0
505.678,22732.0
507.007,22795.0
508.335,22637.0
509.663,22878.0
510.991,22817.0
512.319,23061.0
513.646,22826.0
514.973,23170.0
516.3,23075.0
517.627,23200.0
518.954,23234.0
520.28,23253.65
521.607,23257.0
522.933,23320.0
524.259,23314.0
525.584,23288.0
526.91,23205.0
528.235,23488.0
529.56,23557.0
530.885,23548.0
532.209,23345.0
533.534,23466.0
534.858,23660.0
536.182,23808.0
537.506,23710.0
538.829,23648.0
540.152,23762.0
541.476,23816.0
542.799,24006.0
544.121,23747.0
545.444,24107.0
546.766,23980.0
548.088,23996.0
549.41,24113.0
550.732,24138.0
552.053,24197.0
553.375,24320.0
554.696,24300.297
556.017,24227.0
557.337,24306.0
558.658,24404.0
559.978,24404.0
561.298,24275.0
562.618,24487.0
563.938,24289.0
565.257,24534.0
566.576,24674.0
567.895,24388.0
569.214,24608.0
570.533,24771.0
571.851,24913.0
573.17,24583.0
574.488,25016.0
575.805,24782.0
577.123,24836.0
578.44,24860.0
579.758,24885.0
581.075,25075.0
582.391,24864.0
583.708,25179.0
585.024,25047.0
586.341,25029.0
587.657,25147.0
588.972,25385.0
590.288,25458.0
591.603,25321.0
592.918,25067.0
594.233,25372.0
595.548,25618.0
596.863,25568.0
598.177,25280.0
599.491,25617.0
600.805,25581.0
602.119,25666.0
603.432,25696.0
604.746,25731.646
606.059,26088.0
607.372,25922.0
608.685,25908.0
609.997,26194.0
611.309,26060.0
612.621,26043.0
613.933,26112.0
615.245,26356.0
616.557,26236.0
617.868,26427.0
619.179,26377.0
620.49,26660.0
621.801,26242.0
623.111,26886.0
624.421,26507.0
625.731,26886.0
627.041,26420.0
628.351,27130.0
629.66,26806.0
630.97,26846.0
632.279,27258.0
633.588,27043.0
634.896,27296.0
636.205,27126.0
637.513,27532.0
638.821,27221.0
640.129,27611.0
641.437,27744.0
642.744,27637.0
644.051,27470.0
645.358,27633.0
646.665,27791.0
647.972,27768.0
649.278,27568.0
650.584,27737.0
651.89,27690.0
653.196,28130.0
654.502,27794.0
655.807,27998.0
657.113,27769.0
658.418,27904.0
659.722,28187.0
661.027,28085.0
662.331,27980.0
663.636,28028.0
664.94,28188.0
666.244,27718.0
667.547,28230.0
668.851,28083.0
670.154,28443.0
671.457,28190.0
672.76,28243.0
674.062,28506.0
675.365,28422.0
676.667,28585.0
677.969,28733.0
679.271,28760.0
680.572,28826.0
681.874,28964.279
683.175,29174.0
684.476,29274.0
685.777,29264.0
687.077,29529.0
688.378,29270.0
689.678,29472.0
690.978,29812.0
692.278,29726.0
693.577,29954.232
694.877,30432.0
696.176,30160.0
697.475,30490.0
698.774,30614.0
700.072,30900.0
701.371,30891.0
702.669,31032.0
703.967,30652.0
705.265,31228.0
706.562,31326.0
707.86,31178.0
709.157,30748.0
710.454,31097.0
711.751,30480.0
713.047,30731.0
714.344,30540.0
715.64,30862.0
716.936,30726.654
718.232,30394.0
719.527,30531.0
720.823,30496.0
722.118,30351.0
723.413,30642.0
724.708,30346.0
726.002,30416.0
727.297,30745.0
728.591,30217.0
729.885,30648.0
731.179,30862.0
732.472,30545.0
733.766,30605.0
735.059,30534.0
736.352,30747.0
737.645,30920.0
738.937,31076.0
740.23,31219.0
741.522,31289.291
742.814,31153.0
744.106,31382.0
745.397,31618.0
746.689,31669.0
747.98,31322.0
749.271,31772.0
750.562,31713.0
751.853,31998.0
753.143,31664.0
754.433,31853.0
755.723,32045.0
757.013,31747.0
758.303,32368.0
759.592,31913.0
760.881,31828.0
762.17,31782.0
763.459,32220.0
764.748,31866.0
766.036,31928.0
767.325,32169.0
768.613,31658.0
769.901,31954.0
771.188,32160.0
772.476,31714.0
773.763,32278.0
775.05,31826.0
776.337,32153.0
777.624,32205.0
778.91,32085.0
780.196,32050.0
781.482,32206.0
782.768,32006.0
784.054,32188.0
785.339,32280.0
786.625,32532.0
787.91,32163.0
789.195,32596.0
790.479,32382.0
791.764,32509.0
793.048,32770.0
794.332,32448.0
795.616,32794.0
796.9,32613.0
798.183,32796.0
799.467,32428.0
800.75,32721.0
802.033,32779.0
803.316,32640.0
804.598,33198.0
805.88,32501.0
807.163,33168.0
808.445,33042.0
809.726,33098.0
811.008,32977.0
812.289,33302.0
813.57,32923.0
814.851,33460.0
816.132,33280.0
817.413,33271.0
818.693,33182.0
819.973,33596.0
821.253,33328.0
822.533,33566.0
823.813,33883.0
825.092,33624.0
826.371,33779.0
827.65,33813.0
828.929,33628.0
830.208,33746.672
831.486,33978.0
832.764,33840.0
834.042,33869.0
835.32,34083.0
836.598,34020.0
837.875,34094.0
839.152,34203.0
840.429,34282.0
841.706,34504.0
842.983,34313.0
844.259,34267.0
845.536,34664.0
846.812,34346.0
848.088,34536.0
849.363,34377.0
850.639,34404.922
851.914,34763.0
853.189,34567.0
854.464,34741.0
855.739,34976.0
857.013,35276.0
858.288,34897.0
859.562,34712.0
860.836,35084.0
862.11,35124.0
863.383,34888.0
864.656,35515.0
865.93,35196.0
867.203,35224.0
868.475,35550.0
869.748,35621.0
871.02,35457.0
872.292,35530.0
873.564,35584.0
874.836,35594.0
876.108,35713.0
877.379,35764.0
878.65,36096.0
879.922,36025.0
881.192,36012.0
882.463,35908.0
883.733,36208.0
885.004,36116.0
886.274,36144.0
887.544,36081.0
888.813,36605.0
890.083,36330.0
891.352,36463.0
892.621,36726.0
893.89,36507.0
895.159,36564.0
896.427,36521.0
897.695,36541.0
898.964,36631.176
900.232,36782.0
901.499,36949.0
902.767,36974.0
904.034,37392.0
905.301,37365.574
906.568,37443.0
907.835,37489.0
909.102,37424.0
910.368,37460.0
911.634,37587.0
912.9,37683.0
914.166,37670.0
915.432,38016.0
916.697,38005.0
917.962,37378.0
919.227,38037.0
920.492,37768.0
921.757,38067.0
923.021,38005.0
924.285,38096.0
925.55,38264.0
926.813,38246.0
928.077,38170.0
929.341,38077.0
930.604,38296.0
931.867,38475.0
933.13,38446.0
934.393,38237.0
935.655,38825.0
936.918,38392.0
938.18,39004.0
939.442,38520.0
940.703,38635.0
941.965,39048.0
943.226,38830.0
944.488,38627.0
945.749,39036.0
947.009,39386.0
948.27,39113.0
949.53,39139.0
950.791,39080.0
952.051,39619.0
953.311,39360.0
954.57,39180.0
955.83,39741.0
957.089,39569.0
958.348,39683.0
959.607,39616.0
960.866,39928.0
962.124,39678.0
963.383,39835.0
964.641,39835.0
965.899,39936.0
967.156,40142.0
968.414,40089.0
969.671,39965.0
970.928,40072.0
972.185,40033.0
973.442,40312.0
974.699,40210.0
975.955,40434.0
977.211,40477.0
978.468,40338.0
979.723,40590.0
980.979,40408.0
982.234,40576.0
983.49,41157.0
984.745,40405.0
986.0,40956.0
987.254,40888.0
988.509,40580.0
989.763,41354.0
991.017,40916.0
992.271,41222.0
993.525,41107.0
994.779,41030.0
996.032,41326.0
997.285,41305.0
998.538,41504.0
999.791,41010.0
1001.044,41846.0
1002.296,41088.0
1003.548,41571.0
1004.8,41617.0
1006.052,41525.0
1007.304,41892.0
1008.555,41761.0
1009.807,41896.0
1011.058,41930.0
1012.309,41792.0
1013.559,41996.0
1014.81,41901.0
1016.06,41875.0
1017.31,42298.0
1018.56,42380.0
1019.81,41883.0
1021.06,42206.0
1022.309,42476.0
1023.558,42200.0
1024.807,42708.0
1026.056,42416.0
1027.305,42792.0
1028.553,42465.0
1029.801,42922.0
1031.049,42781.0
1032.297,42888.0
1033.545,42936.0
1034.793,43282.0
1036.04,43080.0
1037.287,43136.0
1038.534,43201.0
1039.781,43154.0
1041.027,43720.0
1042.274,43298.0
1043.52,43580.0
1044.766,43912.0
1046.012,43515.0
1047.257,43590.0
1048.503,43626.0
1049.748,44190.0
1050.993,43755.0
1052.238,44216.0
1053.483,44336.0
1054.727,43980.0
1055.971,43954.0
1057.216,44381.0
1058.459,44257.0
1059.703,44316.0
1060.947,44034.0
1062.19,44355.0
1063.433,44310.0
1064.676,44481.0
1065.919,44483.0
1067.162,44322.0
1068.404,44702.0
1069.646,44112.0
1070.888,44488.0
1072.13,44976.0
1073.372,44512.0
1074.613,44776.0
1075.855,44969.0
1077.096,44464.0
1078.337,44737.0
1079.578,45026.0
1080.818,44784.0
1082.059,45225.0
1083.299,44875.0
1084.539,45189.0
1085.779,45213.0
1087.018,45100.0
1088.258,45076.0
1089.497,45085.0
1090.736,45048.012
1091.975,45091.0
1093.213,45073.0
1094.452,45083.0
1095.69,45135.715
