Raman Shift,Intensity 
400,13.17153805
401,13.20330852
402,13.14326136
403,13.27581796
404,13.26873405
405,13.24406441
406,13.16883286
407,13.22313515
408,13.26748066
409,13.20856821
410,13.21055431
411,13.13843322
412,13.29142997
413,13.13915698
414,13.23743007
415,13.24838406
416,13.12213573
417,13.13496833
418,13.23798299
419,13.22586247
420,13.24885677
421,13.18760232
422,13.20220985
423,13.17963149
424,13.18072782
425,13.15944388
426,13.2147073
427,13.26452649
428,13.16235522
429,13.21553754
430,13.1233047
431,13.24482231
432,13.23744999
433,13.18975556
434,13.215716
435,13.19620569
436,13.18411404
437,13.2334957
438,13.13299976
439,13.09599277
440,13.17875733
441,13.14458334
442,13.31277449
443,13.11552496
444,13.20888552
445,13.23444564
446,13.26147361
447,13.12559097
448,13.17280583
449,13.17682753
450,13.05453871
451,13.26253709
452,13.1968213
453,13.23775749
454,13.1059936
455,13.17648267
456,13.17878301
457,13.30548439
458,13.2251359
459,13.22953263
460,13.15839339
461,13.17174478
462,13.20825105
463,13.14859215
464,13.10081701
465,13.23587386
466,13.25146191
467,13.17869784
468,13.30825243
469,13.27107948
470,13.22804702
471,13.13097774
472,13.19311426
473,13.22825759
474,13.21008451
475,13.22560093
476,13.24486203
477,13.24990209
478,13.19888671
479,13.27620575
480,13.11768251
481,13.13872425
482,13.2668365
483,13.14532642
484,13.20445119
485,13.19391512
486,13.21661751
487,13.2489948
488,13.23816749
489,13.1601149
490,13.23017482
491,13.18103343
492,13.20141998
493,13.19403193
494,13.27269633
495,13.19226957
496,13.24995654
497,13.13467787
498,13.16654254
499,13.20826609
500,13.17873595
501,13.20908804
502,13.22251374
503,13.2054633
504,13.18650179
505,13.08941097
506,13.21801118
507,13.21804734
508,13.18768096
509,13.20389558
510,13.23649641
511,13.2567776
512,13.1442014
513,13.1640661
514,13.16866017
515,13.14239613
516,13.27992012
517,13.13207177
518,13.18512225
519,13.20203685
520,13.11280222
521,13.2063574
522,13.17747168
523,13.19689673
524,13.1381375
525,13.22854541
526,13.22714852
527,13.15208832
528,13.16964185
529,13.19093819
530,13.2428038
531,13.24531201
532,13.26663442
533,13.28540608
534,13.16401011
535,13.22127275
536,13.19798428
537,13.12622851
538,13.25308058
539,13.24128781
540,13.27531577
541,13.14818514
542,13.24479292
543,13.16975794
544,13.18592661
545,13.23551484
546,13.13670612
547,13.202851
548,13.2765355
549,13.31498675
550,13.17018893
551,13.21735795
552,13.27239166
553,13.16045642
554,13.27971949
555,13.19685994
556,13.1622589
557,13.16798049
558,13.17181971
559,13.23858818
560,13.11401423
561,13.16163162
562,13.18694478
563,13.22555719
564,13.10448588
565,13.19931473
566,13.41543048
567,13.12948619
568,13.04930438
569,13.24036132
570,13.26850812
571,13.14005815
572,13.14453706
573,13.0830994
574,13.1857366
575,13.24631593
576,13.20937849
577,13.16351878
578,13.20996343
579,13.27145588
580,13.1369924
581,13.11767757
582,13.32371503
583,13.20385089
584,13.23621537
585,13.25700149
586,13.22077001
587,13.18340579
588,13.28073626
589,13.16955921
590,13.22982107
591,13.25715005
592,13.15479924
593,13.14000489
594,13.27582535
595,13.16974619
596,13.21748321
597,13.13400338
598,13.17542679
599,13.18724747
600,13.27446368
601,13.15060742
602,13.17205799
603,13.27507953
604,13.26201958
605,13.15880333
606,13.23881348
607,13.08768083
608,13.17264888
609,13.2027469
610,13.28003126
611,13.1618871
612,13.18706408
613,13.32995317
614,13.19872066
615,13.17140061
616,13.24696141
617,13.19992647
618,13.3035807
619,13.24308923
620,13.16813556
621,13.20510258
622,13.14796513
623,13.18138693
624,13.10663501
625,13.16266852
626,13.22664122
627,13.19896821
628,13.23372446
629,13.18416864
630,13.14831219
631,13.21151394
632,13.19115011
633,13.2351326
634,13.24494485
635,13.19365435
636,13.19623832
637,13.20845757
638,13.10274561
639,13.15777378
640,13.23747995
641,13.15644547
642,13.19633478
643,13.25988261
644,13.25177077
645,13.19288586
646,13.12052156
647,13.32526698
648,13.16808279
649,13.21320914
650,13.14511363
651,13.22025839
652,13.2608442
653,13.27072267
654,13.1885232
655,13.08331479
656,13.14598186
657,13.26475022
658,13.32066551
659,13.23217385
660,13.28580795
661,13.12442642
662,13.33577991
663,13.21316155
664,13.28945687
665,13.19347191
666,13.19534936
667,13.0813762
668,13.14853935
669,13.26756124
670,13.14294096
671,13.23109906
672,13.19998782
673,13.14346814
674,13.07904398
675,13.20568016
676,13.2094706
677,13.28283416
678,13.15443358
679,13.24619659
680,13.20513806
681,13.25579292
682,13.25531016
683,13.23014475
684,13.16211168
685,13.29053952
686,13.19944939
687,13.1725967
688,13.20184112
689,13.2340513
690,13.17797234
691,13.1851076
692,13.07739071
693,13.28771804
694,13.1529514
695,13.18718318
696,13.22677517
697,13.13207544
698,13.2240681
699,13.18559881
700,13.30042128
701,13.16369024
702,13.10250822
703,13.27030513
704,13.18648199
705,13.21188463
706,13.22752367
707,13.199516
708,13.11004418
709,13.19977921
710,13.21853867
711,13.09655434
712,13.26417251
713,13.30642234
714,13.2416961
715,13.17337587
716,13.23940094
717,13.26020284
718,13.25694347
719,13.19864916
720,13.21480655
721,13.25447417
722,13.16046295
723,13.19812697
724,13.19135681
725,13.20553461
726,13.11817051
727,13.27694223
728,13.24541021
729,13.29045579
730,13.38182526
731,13.34933198
732,13.24952145
733,13.20522179
734,13.19352256
735,13.14645647
736,13.20848966
737,13.13878207
738,13.13070729
739,13.26295961
740,13.27349166
741,13.15138198
742,13.21194338
743,13.0745778
744,13.22897009
745,13.12871667
746,13.17828193
747,13.25785295
748,13.15585905
749,13.32060208
750,13.22235188
751,13.23799512
752,13.07170234
753,13.16580988
754,13.24965885
755,13.24936322
756,13.15675329
757,13.22616746
758,13.15152111
759,13.13701079
760,13.2033797
761,13.17293371
762,13.2340607
763,13.28124769
764,13.21341643
765,13.3322914
766,13.25716757
767,13.15517717
768,13.24943173
769,13.05580232
770,13.18559815
771,13.13527415
772,13.33343237
773,13.18361173
774,13.20353965
775,13.18496189
776,13.25779143
777,13.16659373
778,13.2241555
779,13.16677523
780,13.18819949
781,13.17612651
782,13.14864122
783,13.1238324
784,13.17066927
785,13.18120454
786,13.2796514
787,13.25640944
788,13.21081679
789,13.20754706
790,13.21092781
791,13.13771934
792,13.2203955
793,13.24806079
794,13.11040537
795,13.20120931
796,13.23455696
797,13.17984748
798,13.1832018
799,13.32571667
800,13.27347344
801,13.16305291
802,13.22768262
803,13.20029639
804,13.30518574
805,13.24835975
806,13.21979069
807,13.09663082
808,13.18224372
809,13.13681407
810,13.09891748
811,13.22984718
812,13.22442141
813,13.15687594
814,13.13319036
815,13.30878492
816,13.14872271
817,13.23093476
818,13.19549291
819,13.29518151
820,13.31451132
821,13.25072926
822,13.25558764
823,13.19313841
824,13.18958724
825,13.12020057
826,13.21930954
827,13.17429837
828,13.11862992
829,13.19286787
830,13.17811664
831,13.14066784
832,13.28539284
833,13.09546248
834,13.1676181
835,13.26826528
836,13.21559225
837,13.19652938
838,13.17373522
839,13.21800113
840,13.31502596
841,13.15566974
842,13.1857854
843,13.19339334
844,13.27229032
845,13.04969585
846,13.20190428
847,13.0665836
848,13.24307429
849,13.11193298
850,13.21423916
851,13.2144005
852,13.22049229
853,13.19641514
854,13.20268583
855,13.28234294
856,13.18044608
857,13.16314224
858,13.23731156
859,13.26532971
860,13.20784429
861,13.15813775
862,13.13799838
863,13.24253733
864,13.15467153
865,13.26939926
866,13.19722078
867,13.27083177
868,13.33299644
869,13.23334866
870,13.26230323
871,13.23990358
872,13.24908379
873,13.17518591
874,13.23950336
875,13.2138718
876,13.18469899
877,13.25834188
878,13.20781481
879,13.24086896
880,13.18280872
881,13.17917258
882,13.27945737
883,13.23860408
884,13.16800348
885,13.22998472
886,13.21065347
887,13.0696254
888,13.22829271
889,13.19774181
890,13.13500549
891,13.17055892
892,13.21878688
893,13.26591701
894,13.21093241
895,13.16529016
896,13.16505871
897,13.11410889
898,13.231223
899,13.32274995
900,13.28688855
901,13.07907263
902,13.16517365
903,13.2287435
904,13.25290615
905,13.16029476
906,13.27452709
907,13.1439084
908,13.1681263
909,13.12368295
910,13.1156949
911,13.25547683
912,13.23729867
913,13.20759831
914,13.21777943
915,13.21750672
916,13.21501725
917,13.19101786
918,13.1956238
919,13.2418961
920,13.31116782
921,13.25613402
922,13.31737447
923,13.08805698
924,13.23505451
925,13.16135405
926,13.21604066
927,13.13899631
928,13.09009704
929,13.1595375
930,13.19558498
931,13.27988928
932,13.26401626
933,13.25696837
934,13.1386134
935,13.16995286
936,13.19405853
937,13.14738357
938,13.32383749
939,13.2056646
940,13.20390627
941,13.2503946
942,13.21155237
943,13.04204155
944,13.32096998
945,13.15288404
946,13.18509733
947,13.29397727
948,13.13647648
949,13.19796334
950,13.19404815
951,13.20219137
952,13.15730996
953,13.29871803
954,13.17893967
955,13.14375943
956,13.25663549
957,13.10514599
958,13.27684667
959,13.27974161
960,13.20658468
961,13.26008505
962,13.20548346
963,13.19618574
964,13.21448783
965,13.26124754
966,13.27106198
967,13.06581465
968,13.32808479
969,13.15378146
970,13.20227518
971,13.26919991
972,13.1576376
973,13.1578477
974,13.15047042
975,13.20258939
976,13.24443915
977,13.19342049
978,13.18141868
979,13.13950495
980,13.27913352
981,13.15118889
982,13.23207399
983,13.19168346
984,13.15821266
985,13.08392534
986,13.12775878
987,13.23764811
988,13.12955018
989,13.19712606
990,13.24360413
991,13.27455847
992,13.13136187
993,13.19680203
994,13.28374591
995,13.23735088
996,13.23650256
997,13.1270955
998,13.21762772
999,13.2501094
1000,13.25854195
1001,13.23527778
1002,13.13908148
1003,13.20634536
1004,13.10235479
1005,13.22204568
1006,13.23807943
1007,13.21041946
1008,13.23800781
1009,13.2800543
1010,13.24356484
1011,13.26708006
1012,13.24342785
1013,13.21887484
1014,13.23301478
1015,13.23453913
1016,13.16630821
1017,13.19688427
1018,13.12503073
1019,13.29779038
1020,13.18258505
1021,13.18382927
1022,13.20327464
1023,13.24538054
1024,13.24690847
1025,13.14221223
1026,13.20471573
1027,13.18606293
1028,13.17993502
1029,13.24224425
1030,13.19103239
1031,13.17305464
1032,13.25724024
1033,13.21354317
1034,13.22404187
1035,13.16631926
1036,13.20464634
1037,13.15127167
1038,13.27998542
1039,13.25753185
1040,13.22527792
1041,13.14413529
1042,13.12773987
1043,13.20044295
1044,13.16918451
1045,13.1741787
1046,13.29438802
1047,13.15774986
1048,13.20223371
1049,13.24145091
1050,13.0463734
1051,13.27267487
1052,13.134248
1053,13.17164083
1054,13.14381625
1055,13.12471667
1056,13.26347164
1057,13.23116802
1058,13.20521936
1059,13.31201202
1060,13.12155373
1061,13.27049522
1062,13.18881471
1063,13.31116981
1064,13.26035368
1065,13.11424258
1066,13.24838555
1067,13.2116776
1068,13.15383584
1069,13.21968204
1070,13.27386018
1071,13.33689434
1072,13.16349771
1073,13.22590854
1074,13.18201415
1075,13.27586181
1076,13.20053944
1077,13.29819511
1078,13.12454431
1079,13.19350183
1080,13.20435818
1081,13.12285211
1082,13.14630036
1083,13.24105961
1084,13.23626607
1085,13.11737207
1086,13.24669433
1087,13.27449036
1088,13.2303707
1089,13.24034625
1090,13.25252723
1091,13.10339657
1092,13.11500704
1093,13.20716161
1094,13.29961726
1095,13.17509118
1096,13.26669846
1097,13.251121
1098,13.24115621
1099,13.22074847
1100,13.20534386
1101,13.1615898
1102,13.26976482
1103,13.15690951
1104,13.23714947
1105,13.19260406
1106,13.21459999
1107,13.26285092
1108,13.22443557
1109,13.2057882
1110,13.19903085
1111,13.18426984
1112,13.1864703
1113,13.14394767
1114,13.1425606
1115,13.24249393
1116,13.11909351
1117,13.30858096
1118,13.22101181
1119,13.29783227
1120,13.20278767
1121,13.27364767
1122,13.26691859
1123,13.28578442
1124,13.17954901
1125,13.20949259
1126,13.1993858
1127,13.20668199
1128,13.22571217
1129,13.27856232
1130,13.27695382
1131,13.24531047
1132,13.11640685
1133,13.09530243
1134,13.16758432
1135,13.29265544
1136,13.2518629
1137,13.24921443
1138,13.20041996
1139,13.24686101
1140,13.26369564
1141,13.13807116
1142,13.11423855
1143,13.10739714
1144,13.15573631
1145,13.23497346
1146,13.1837254
1147,13.21951569
1148,13.21959053
1149,13.22847849
1150,13.13314161
1151,13.14696775
1152,13.24387277
1153,13.18520914
1154,13.22000837
1155,13.20306796
1156,13.24551758
1157,13.22484159
1158,13.07756015
1159,13.15776588
1160,13.22926669
1161,13.3044622
1162,13.14077041
1163,13.23942329
1164,13.26549195
1165,13.17982257
1166,13.14286884
1167,13.28149812
1168,13.21644696
1169,13.10661698
1170,13.33517296
1171,13.25359764
1172,13.11496982
1173,13.14086276
1174,13.28680903
1175,13.21257941
1176,13.26601823
1177,13.20705629
1178,13.24983954
1179,13.14913481
1180,13.27342379
1181,13.16787286
1182,13.19834568
1183,13.31430024
1184,13.11881711
1185,13.2187949
1186,13.27505079
1187,13.21529931
1188,13.08711165
1189,13.19775235
1190,13.30131902
1191,13.22572061
1192,13.12993461
1193,13.17161873
1194,13.13640667
1195,13.21328142
1196,13.17831462
1197,13.18001859
1198,13.20387601
1199,13.33696434
1200,13.17098543
1201,13.17957619
1202,13.23754112
1203,13.16234698
1204,13.11517282
1205,13.20020582
1206,13.20620569
1207,13.17009274
1208,13.13352835
1209,13.09524163
1210,13.19175512
1211,13.26980758
1212,13.25470395
1213,13.15044018
1214,13.233096
1215,13.12483396
1216,13.16940708
1217,13.25261911
1218,13.19990421
1219,13.27034395
1220,13.2682093
1221,13.24978469
1222,13.23110091
1223,13.1430698
1224,13.15850729
1225,13.15845504
1226,13.21115674
1227,13.26152133
1228,13.14128183
1229,13.17797414
1230,13.20203829
1231,13.2455263
1232,13.16040008
1233,13.24392213
1234,13.24109564
1235,13.26093677
1236,13.15365963
1237,13.29762103
1238,13.24148032
1239,13.18038357
1240,13.30169542
1241,13.20215576
1242,13.28072257
1243,13.26740928
1244,13.20108688
1245,13.07335525
1246,12.97897323
1247,13.14699358
1248,13.13057038
1249,13.22386511
1250,13.27879016
1251,13.15281204
1252,13.1830284
1253,13.2429632
1254,13.1388307
1255,13.16098398
1256,13.25781298
1257,13.109345
1258,13.22358191
1259,13.10630573
1260,13.1557783
1261,13.2389939
1262,13.22729241
1263,13.33068561
1264,13.1691313
1265,13.16953695
1266,13.16495491
1267,13.19691235
1268,13.07020828
1269,13.23861771
1270,13.24927569
1271,13.17831974
1272,13.20269048
1273,13.28854943
1274,13.24373491
1275,13.25560577
1276,13.16562623
1277,13.15180628
1278,13.25632199
1279,13.1779214
1280,13.18226692
1281,13.23998552
1282,13.29246068
1283,13.32046608
1284,13.15707579
1285,13.17375638
1286,13.240757
1287,13.26699501
1288,13.22877868
1289,13.25017647
1290,13.1956261
1291,13.27236187
1292,13.21706301
1293,13.17718893
1294,13.13029872
1295,13.2020952
1296,13.24207318
1297,13.14493593
1298,13.06893242
1299,13.24419786
1300,13.14267329
1301,13.17490131
1302,13.19109221
1303,13.16483586
1304,13.19781667
1305,13.14914123
1306,13.23494704
1307,13.26447225
1308,13.11148854
1309,13.16311081
1310,13.13902884
1311,13.18496499
1312,13.14647095
1313,13.19901551
1314,13.18974039
1315,13.23351164
1316,13.22122208
1317,13.19171616
1318,13.23542688
1319,13.12150999
1320,13.15037891
1321,13.06885851
1322,13.17688572
1323,13.24081388
1324,13.15848595
1325,13.12647849
1326,13.20011321
1327,13.18568207
1328,13.16430031
1329,13.1844983
1330,13.02106824
1331,13.19907941
1332,13.23280596
1333,13.22943927
1334,13.15919116
1335,13.21157356
1336,13.18293257
1337,13.21375606
1338,13.25635081
1339,13.22383991
1340,13.08006397
1341,13.15167722
1342,13.13246605
1343,13.2339792
1344,13.19726568
1345,13.22277216
1346,13.28925576
1347,13.11100344
1348,13.19311577
1349,13.23425949
1350,13.23565835
1351,13.24602261
1352,13.23844734
1353,13.21953772
1354,13.24205362
1355,13.14033595
1356,13.20892887
1357,13.09713356
1358,13.10949945
1359,13.26899481
1360,13.28000729
1361,13.21972277
1362,13.22748467
1363,13.19427897
1364,13.24498301
1365,13.13488436
1366,13.15895755
1367,13.21761791
1368,13.11365632
1369,13.30832018
1370,13.23534339
1371,13.163954
1372,13.1346635
1373,13.12667965
1374,13.17832894
1375,13.18475899
1376,13.1932019
1377,13.21212052
1378,13.2524026
1379,13.09003463
1380,13.26006803
1381,13.23715986
1382,13.19506417
1383,13.24492536
1384,13.14801236
1385,13.21849247
1386,13.14545755
1387,13.09570052
1388,13.34601295
1389,13.31001274
1390,13.21390624
1391,13.30540718
1392,13.19321917
1393,13.17309094
1394,13.16225073
1395,13.20547587
1396,13.22147698
1397,13.19867556
1398,13.13457544
1399,13.21537173
1400,13.24667352
1401,13.25943004
1402,13.23541775
1403,13.17507033
1404,13.09590453
1405,13.20954939
1406,13.18571926
1407,13.17506658
1408,13.36064724
1409,13.17586166
1410,13.27031417
1411,13.12663023
1412,13.15103431
1413,13.07297743
1414,13.09396024
1415,13.22091833
1416,13.21541789
1417,13.30171154
1418,13.20749504
1419,13.13269201
1420,13.0978606
1421,13.21767098
1422,13.1874124
1423,13.28267403
1424,13.29288101
1425,13.18850688
1426,13.16944681
1427,13.09952851
1428,13.20466342
1429,13.08640521
1430,13.23769838
1431,13.18709834
1432,13.15101394
1433,13.22811356
1434,13.16620958
1435,13.07146002
1436,13.172188
1437,13.23809143
1438,13.37658877
1439,13.14894781
1440,13.13074067
1441,13.10201205
1442,13.24954716
1443,13.13999024
1444,13.22006394
1445,13.13738003
1446,13.22639845
1447,13.26478755
1448,13.22692175
1449,13.1567451
1450,13.229123
1451,13.22651204
1452,13.17016984
1453,13.27592429
1454,13.16289951
1455,13.17972169
1456,13.08647408
1457,13.35036834
1458,13.17347921
1459,13.25940501
1460,13.13673351
1461,13.31396206
1462,13.30625753
1463,13.1689839
1464,13.14789216
1465,13.15987647
1466,13.20308712
1467,13.31580075
1468,13.28815509
1469,13.16290373
1470,13.11812417
1471,13.30818053
1472,13.1788735
1473,13.07348279
1474,13.09665263
1475,13.28920843
1476,13.18173814
1477,13.26381288
1478,13.23160309
1479,13.15321487
1480,13.1795012
1481,13.24539056
1482,13.20803786
1483,13.21115012
1484,13.18422156
1485,13.23965919
1486,13.21112253
1487,13.17314236
1488,13.17067766
1489,13.23154641
1490,13.07959696
1491,13.15466119
1492,13.21766766
1493,13.27149461
1494,13.14759128
1495,13.13539988
1496,13.30842708
1497,13.27498106
1498,13.26052969
1499,13.2464481
1500,13.32478003
1501,13.2359976
1502,13.25749125
1503,13.25014837
1504,13.19144881
1505,13.22779095
1506,13.0901544
1507,13.29558199
1508,13.11769926
1509,13.27971641
1510,13.33914615
1511,13.22966911
1512,13.20775191
1513,13.24500583
1514,13.16599931
1515,13.14751078
1516,13.21819114
1517,13.16171248
1518,13.0303692
1519,13.25679466
1520,13.24310481
1521,13.25315534
1522,13.2768572
1523,13.2569819
1524,13.19358872
1525,13.18033262
1526,13.15656717
1527,13.13504451
1528,13.17503073
1529,13.25315597
1530,13.26986461
1531,13.19325945
1532,13.19080873
1533,13.15927126
1534,13.18586627
1535,13.17290483
1536,13.28422473
1537,13.20647518
1538,13.18518842
1539,13.2123091
1540,13.27596167
1541,13.20794839
1542,13.17972135
1543,13.12611568
1544,13.17698638
1545,13.22066517
1546,13.23347489
1547,13.29303208
1548,13.273055
1549,13.22439271
1550,13.31162234
1551,13.18965463
1552,13.15545314
1553,13.25838099
1554,13.28007898
1555,13.21830964
1556,13.2442417
1557,13.19542911
1558,13.15319631
1559,13.29572773
1560,13.24552688
1561,13.08731237
1562,13.17796717
1563,13.32764041
1564,13.1183195
1565,13.25558558
1566,13.15580707
1567,13.22497974
1568,13.25683643
1569,13.24414501
1570,13.19173306
1571,13.18447778
1572,13.28011584
1573,13.1665323
1574,13.16060554
1575,13.05157025
1576,13.10298472
1577,13.16981733
1578,13.17686093
1579,13.31795888
1580,13.18436557
1581,13.23121523
1582,13.22383536
1583,13.24192541
1584,13.21005787
1585,13.1502964
1586,13.15532264
1587,13.17958464
1588,13.31747039
1589,13.18846962
1590,13.18699919
1591,13.22939842
1592,13.24769929
1593,13.17383966
1594,13.33375196
1595,13.20294727
1596,13.21239254
1597,13.2863919
1598,13.25445503
1599,13.15320766
1600,13.22801333
1601,13.11469123
1602,13.16371368
1603,13.17653011
1604,13.22075373
1605,13.21464553
1606,13.27229226
1607,13.26224618
1608,13.18124048
1609,13.22204705
1610,13.1127108
1611,13.22708725
1612,13.18830142
1613,13.11039722
1614,13.1564426
1615,13.1563192
1616,13.18783338
1617,13.28678432
1618,13.27529665
1619,13.26701352
1620,13.17837259
1621,13.12224428
1622,13.13752136
1623,13.26326538
1624,13.14907448
1625,13.07408835
1626,13.16203899
1627,13.0228191
1628,13.23275647
1629,13.18961561
1630,13.12101462
1631,13.25012327
1632,13.18401464
1633,13.21740429
1634,13.27320656
1635,13.26953943
1636,13.23968711
1637,13.19893862
1638,13.17384232
1639,13.26466785
1640,13.2062752
1641,13.17487389
1642,13.19145207
1643,13.22070391
1644,13.18171289
1645,13.15007284
1646,13.16691587
1647,13.24227308
1648,13.29094254
1649,13.23073912
1650,13.13011022
1651,13.12876808
1652,13.19783556
1653,13.26154086
1654,13.22349559
1655,13.22984841
1656,13.29140284
1657,13.20883272
1658,13.16100127
1659,13.24166737
1660,13.11038473
1661,13.29217692
1662,13.03679989
1663,13.13355583
1664,13.16897319
1665,13.19731185
1666,13.22684836
1667,13.17869321
1668,13.24980579
1669,13.25676167
1670,13.24556418
1671,13.25528408
1672,13.19204948
1673,13.07661499
1674,13.11035252
1675,13.26483284
1676,13.15160856
1677,13.30127979
1678,13.19355939
1679,13.23108367
1680,13.095333
1681,13.19447359
1682,13.31520511
1683,13.16753018
1684,13.29445138
1685,13.11727028
1686,13.22036345
1687,13.11045974
1688,13.21855243
1689,13.19409161
1690,13.13220834
1691,13.25107901
1692,13.18811727
1693,13.18403842
1694,13.21215925
1695,13.18551137
1696,13.15330881
1697,13.25133195
1698,13.17509134
1699,13.22051759
1700,13.20360439
1701,13.32644684
1702,13.1962098
1703,13.2217945
1704,13.25318871
1705,13.21544023
1706,13.26772172
1707,13.3230589
1708,13.32008246
1709,13.1633022
1710,13.17669012
1711,13.1249536
1712,13.1473244
1713,13.26821568
1714,13.17135465
1715,13.12250832
1716,13.08374445
1717,13.26507698
1718,13.06672085
1719,13.1738602
1720,13.13023459
1721,13.33062379
1722,13.32046227
1723,13.26430601
1724,13.18373466
1725,13.25910221
1726,13.15330378
1727,13.18340675
1728,13.2368068
1729,13.2319501
1730,13.19804806
1731,13.20105599
1732,13.18134368
1733,13.18606341
1734,13.14501766
1735,13.22023209
1736,13.19478987
1737,13.06883528
1738,13.21945173
1739,13.2150194
1740,13.14836435
1741,13.26090925
1742,13.2157152
1743,13.18384431
1744,13.12587744
1745,13.2155652
1746,13.09760128
1747,13.22724132
1748,13.33790095
1749,13.23743697
1750,13.23412636
1751,13.17660668
1752,13.32140235
1753,13.10749192
1754,13.13972632
1755,13.20925939
1756,13.12415335
1757,13.18083073
1758,13.21155914
1759,13.13881375
1760,13.23309021
1761,13.14112135
1762,13.17137809
1763,13.24242922
1764,13.30761336
1765,13.17155245
1766,13.20984146
1767,13.28553202
1768,13.14822339
1769,13.20403635
1770,13.23604391
1771,13.19074876
1772,13.24301238
1773,13.17120018
1774,13.23592782
1775,13.1839325
1776,13.2408283
1777,13.33398904
1778,13.29022295
1779,13.20959351
1780,13.19451507
1781,13.20381199
1782,13.20275215
1783,13.25657947
1784,13.15876459
1785,13.23387423
1786,13.16218885
1787,13.16278315
1788,13.10369257
1789,13.25992351
1790,13.24476213
1791,13.18796833
1792,13.23840466
1793,13.12225894
1794,13.21698369
1795,13.19230752
1796,13.27670377
1797,13.18438542
1798,13.12966591
1799,13.10630225
1800,13.25435921
1801,13.1574374
1802,13.21539808
1803,13.24347166
1804,13.19196765
1805,13.19464843
1806,13.08957232
1807,13.16101911
1808,13.19026539
1809,13.2077755
1810,13.17718329
1811,13.13683182
1812,13.14829187
1813,13.25577246
1814,13.25304222
1815,13.23006189
1816,13.27745123
1817,13.12135997
1818,13.24046815
1819,13.11106176
1820,13.11593297
1821,13.12156119
1822,13.28681421
1823,13.10980447
1824,13.22252113
1825,13.2030318
1826,13.15324387
1827,13.18667926
1828,13.14783604
1829,13.27502668
1830,13.15432535
1831,13.20118045
1832,13.17476969
1833,13.21869822
1834,13.20864431
1835,13.27173289
1836,13.30730229
1837,13.19131557
1838,13.16847258
1839,13.18690932
1840,13.22091792
1841,13.23682277
1842,13.2961461
1843,13.17178856
1844,13.12647664
1845,13.21800446
1846,13.11806226
1847,13.17774023
1848,13.24334473
1849,13.25006857
1850,13.22295613
1851,13.21602935
1852,13.12259854
1853,13.25820261
1854,13.16971773
1855,13.32064708
1856,13.28449122
1857,13.20423663
1858,13.14073153
1859,13.3590794
1860,13.11534881
1861,13.175564
1862,13.22897135
1863,13.03236101
1864,13.17482797
1865,13.19787821
1866,13.16718163
1867,13.26202504
1868,13.28866141
1869,13.14929042
1870,13.18309996
1871,13.23312615
1872,13.33389508
1873,13.19105734
1874,13.12514359
1875,13.20284883
1876,13.13889416
1877,13.30689092
1878,13.1846598
1879,13.15039056
1880,13.20060282
1881,13.10188654
1882,13.19322194
1883,13.20683981
1884,13.17739236
1885,13.12980083
1886,13.08215888
1887,13.28009438
1888,13.15013272
1889,13.18833997
1890,13.26294285
1891,13.13820749
1892,13.12496477
1893,13.1622452
1894,13.16034953
1895,13.19998604
1896,13.2460593
1897,13.19957228
1898,13.24542386
1899,13.25236419
1900,13.27765154
1901,13.2279721
1902,13.14778312
1903,13.16861902
1904,13.1264923
1905,13.21772191
1906,13.09154422
1907,13.3718537
1908,13.22332043
1909,13.12671652
1910,13.09124826
1911,13.19445754
1912,13.21206343
1913,13.24038845
1914,13.19513098
1915,13.21572355
1916,13.31112862
1917,13.28272373
1918,13.18705236
1919,13.18301748
1920,13.246408
1921,13.25832553
1922,13.04714153
1923,13.20047878
1924,13.2804757
1925,13.21721882
1926,13.23717473
1927,13.08469971
1928,13.20017946
1929,13.25232245
1930,13.16224015
1931,13.20428779
1932,13.10045265
1933,13.23887438
1934,13.28894103
1935,13.18136733
1936,13.19204327
1937,13.12005417
1938,13.13057484
1939,13.25963321
1940,13.23459308
1941,13.21998861
1942,13.16474782
1943,13.24818197
1944,13.06344101
1945,13.10149119
1946,13.16660512
1947,13.1920744
1948,13.19562957
1949,13.2053785
1950,13.27427551
1951,13.31179677
1952,13.17261076
1953,13.28897149
1954,13.10104943
1955,13.25381706
1956,13.17618313
1957,13.20315554
1958,13.24291448
1959,13.23830673
1960,13.10180961
1961,13.13144853
1962,13.28843684
1963,13.22508308
1964,13.21707796
1965,13.25709576
1966,13.09417084
1967,13.24014678
1968,13.25214539
1969,13.25294987
1970,13.25229194
1971,13.12198975
1972,13.29577038
1973,13.22072648
1974,13.23444083
1975,13.12736185
1976,13.17744135
1977,13.23014892
1978,13.23487158
1979,13.09348051
1980,13.18013614
1981,13.25677266
1982,13.2309759
1983,13.17435808
1984,13.30553761
1985,13.28993622
1986,13.18760252
1987,13.19359807
1988,13.21763263
1989,13.15820724
1990,13.21072804
1991,13.17993806
1992,13.28594499
1993,13.27834812
1994,13.27768035
1995,13.27951674
1996,13.29924864
1997,13.18089847
1998,13.07131071
1999,13.17080217
2000,13.19224305
2001,13.1474411
2002,13.18085357
2003,13.18011276
2004,13.24636879
2005,13.19744836
2006,13.26092394
2007,13.23935811
2008,13.23839469
2009,13.2552598
2010,13.21956013
2011,13.19789573
2012,13.14104779
2013,13.21582374
2014,13.15848896
2015,13.23354077
2016,13.26832786
2017,13.17395727
2018,13.31806547
2019,13.26040707
2020,13.18898929
2021,13.2043303
2022,13.20077474
2023,13.2689055
2024,13.20041676
2025,13.14049904
2026,13.17327943
2027,13.11841796
2028,13.24158213
2029,13.17168583
2030,13.2071625
2031,13.14837175
2032,13.21439099
2033,13.2385737
2034,13.1468081
2035,13.16910884
2036,13.31876641
2037,13.25739888
2038,13.11519348
2039,13.1497901
2040,13.08976867
2041,13.22073736
2042,13.26906777
2043,13.21350675
2044,13.2975602
2045,13.17269975
2046,13.22078429
2047,13.22996858
2048,13.22654508
2049,13.18336442
2050,13.24516822
2051,13.23733354
2052,13.20120571
2053,13.24424808
2054,13.19668368
2055,13.19537808
2056,13.17610372
2057,13.14483523
2058,13.10905575
2059,13.15998896
2060,13.18259925
2061,13.26904454
2062,13.22155142
2063,13.22066855
2064,13.18647004
2065,13.17807141
2066,13.29910211
2067,13.14801617
2068,13.19204141
2069,13.2810614
2070,13.21530984
2071,13.28112067
2072,13.24171925
2073,13.18616441
2074,13.1553453
2075,13.06686913
2076,13.13043326
2077,13.19285152
2078,13.16511853
2079,13.16676683
2080,13.22590568
2081,13.17711852
2082,13.28886808
2083,13.20092245
2084,13.26847023
2085,13.14363315
2086,13.16768664
2087,13.14250111
2088,13.15190446
2089,13.30770677
2090,13.27066618
2091,13.22121167
2092,13.25101072
2093,13.16564795
2094,13.21208417
2095,13.14719712
2096,13.09515154
2097,13.24032543
2098,13.24775007
2099,13.15194199
2100,13.17613138
2101,13.15209924
2102,13.11957062
2103,13.11206195
2104,13.17682816
2105,13.21727839
2106,13.15995268
2107,13.12386229
2108,13.15175076
2109,13.21285537
2110,13.19570312
2111,13.17612308
2112,13.15437443
2113,13.12122006
2114,13.20283148
2115,13.05106576
2116,13.23649101
2117,13.14589992
2118,13.09632596
2119,13.14929658
2120,13.24692566
2121,13.16288335
2122,13.22170634
2123,13.0939512
2124,13.19865783
2125,13.24564491
2126,13.16412107
2127,13.19847994
2128,13.20792431
2129,13.22295225
2130,13.23774577
2131,13.28269897
2132,13.18505075
2133,13.22243709
2134,13.26743781
2135,13.26231965
2136,13.24402447
2137,13.07354163
2138,13.24226102
2139,13.19859073
2140,13.32407114
2141,13.31066723
2142,13.2380469
2143,13.13270046
2144,13.14430425
2145,13.18909855
2146,13.16283782
2147,13.18369802
2148,13.18624763
2149,13.27660093
2150,13.2036372
2151,13.20453773
2152,13.19952121
2153,13.22556247
2154,13.17069909
2155,13.15606607
2156,13.34701808
2157,13.14352662
2158,13.18804061
2159,13.13487513
2160,13.19676563
2161,13.21813276
2162,13.1815517
2163,13.26249376
2164,13.22535388
2165,13.16478493
2166,13.18311151
2167,13.15943094
2168,13.29589712
2169,13.2920488
2170,13.17491042
2171,13.18879897
2172,13.24606886
2173,13.27641642
2174,13.31016681
2175,13.24544594
2176,13.24261868
2177,13.17769476
2178,13.08898637
2179,13.24850257
2180,13.21673979
2181,13.2437702
2182,13.25628698
2183,13.19677849
2184,13.24953579
2185,13.24269356
2186,13.18058345
2187,13.18702806
2188,13.07189559
2189,13.18643577
2190,13.17823364
2191,13.28157852
2192,13.15388003
2193,13.23357154
2194,13.15905959
2195,13.21561901
2196,13.18446704
2197,13.12168969
2198,13.27136961
2199,13.05392613
2200,13.25766778
2201,13.22242716
2202,13.24318617
2203,13.20750887
2204,13.22373165
2205,13.11990671
2206,13.32179799
2207,13.26009387
2208,13.18953975
2209,13.24755537
2210,13.22350617
2211,13.18337599
2212,13.14971471
2213,13.23952103
2214,13.21387837
2215,13.26528274
2216,13.19917139
2217,13.20932554
2218,13.18829787
2219,13.24229915
2220,13.16307567
2221,13.14565078
2222,13.17211451
2223,13.1620292
2224,13.2351913
2225,13.12486905
2226,13.17551371
2227,13.1666857
2228,13.13996157
2229,13.27472673
2230,13.21836109
2231,13.2693911
2232,13.14042974
2233,13.08492923
2234,13.17966131
2235,13.19397946
2236,13.15763854
2237,13.11453065
2238,13.26901558
2239,13.27294457
2240,13.22907819
2241,13.20795205
2242,13.1462327
2243,13.15709993
2244,13.16981435
2245,13.12952655
2246,13.14705907
2247,13.20792895
2248,13.21556724
2249,13.29161456
2250,13.26504098
2251,13.27763485
2252,13.21471802
2253,13.20881022
2254,13.2878267
2255,13.20128248
2256,13.29676206
2257,13.18869567
2258,13.16088182
2259,13.14125611
2260,13.24652357
2261,13.24860291
2262,13.14267402
2263,13.27761695
2264,13.23131283
2265,13.21863738
2266,13.10777408
2267,13.14197899
2268,13.08743272
2269,13.13084209
2270,13.2185793
2271,13.1515343
2272,13.14377522
2273,13.25551589
2274,13.23201684
2275,13.13027904
2276,13.17491813
2277,13.24932978
2278,13.25585182
2279,13.15323483
2280,13.29811729
2281,13.27542554
2282,13.26703693
2283,13.12979033
2284,13.26391792
2285,13.20984805
2286,13.16697529
2287,13.15753471
2288,13.23566778
2289,13.17683088
2290,13.20731227
2291,13.26970666
2292,13.2488876
2293,13.21651189
2294,13.24622605
2295,13.18934969
2296,13.1991171
2297,13.17109761
2298,13.27047693
2299,13.25091075
2300,13.22265746
2301,13.19126765
2302,13.20566258
2303,13.24506163
2304,13.21440552
2305,13.18568483
2306,13.15498272
2307,13.10965487
2308,13.0211512
2309,13.02732251
2310,13.22105652
2311,13.25138902
2312,13.20267847
2313,13.13245777
2314,13.17479534
2315,13.26532092
2316,13.1789607
2317,13.11000877
2318,13.15782341
2319,13.19022886
2320,13.13193534
2321,13.23279689
2322,13.17682002
2323,13.17651156
2324,13.14311368
2325,13.20278592
2326,13.1950499
2327,13.22997466
2328,13.19662838
2329,13.17917648
2330,13.16662128
2331,13.11955836
2332,13.23828395
2333,13.23460275
2334,13.30154151
2335,13.19088398
2336,13.22461345
2337,13.1944266
2338,13.23021275
2339,13.3311024
2340,13.18254257
2341,13.23363796
2342,13.24165569
2343,13.23852355
2344,13.21492254
2345,13.12571197
2346,13.23203168
2347,13.19134996
2348,13.23465088
2349,13.20500059
2350,13.21630214
2351,13.18896083
2352,13.08532326
2353,13.24030478
2354,13.18645866
2355,13.1808226
2356,13.24816907
2357,13.2225552
2358,13.13059971
2359,13.10288558
2360,13.27793925
2361,13.33603011
2362,13.20195356
2363,13.18204571
2364,13.18712139
2365,13.23489771
2366,13.16445139
2367,13.23457385
2368,13.24613373
2369,13.12822467
2370,13.24368602
2371,13.19457812
2372,13.16982581
2373,13.21584209
2374,13.15074414
2375,13.18402383
2376,13.22223724
2377,13.21160343
2378,13.18051496
2379,13.24465415
2380,13.17657061
2381,13.28123031
2382,13.23060168
2383,13.22872447
2384,13.23919721
2385,13.30856437
2386,13.23851594
2387,13.2122186
2388,13.2469868
2389,13.17317943
2390,13.30617538
2391,13.19360443
2392,13.18820776
2393,13.28935824
2394,13.27214623
2395,13.12500692
2396,13.09643282
2397,13.13622013
2398,13.13779171
2399,13.18640192
2400,13.19508233
2401,13.27080707
2402,13.20335734
2403,13.0828814
2404,13.20989064
2405,13.22588629
2406,13.2695167
2407,13.20066178
2408,13.20055675
2409,13.22940497
2410,13.20052576
2411,13.25741367
2412,13.21272232
2413,13.17100823
2414,13.1120447
2415,13.25015708
2416,13.16427629
2417,13.18369777
2418,13.18403803
2419,13.11804302
2420,13.23509603
2421,13.12327813
2422,13.17205316
2423,13.14281228
2424,13.21684804
2425,13.20492917
2426,13.22726892
2427,13.12239606
2428,13.15408732
2429,13.1763125
2430,13.15573721
2431,13.19393023
2432,13.229796
2433,13.25260121
2434,13.21174063
2435,13.12930348
2436,13.24531883
2437,13.20643414
2438,13.24126612
2439,13.29180773
2440,13.21551838
2441,13.04755358
2442,13.24431788
2443,13.28911615
2444,13.20433014
2445,13.19657489
2446,13.2602951
2447,13.24635506
2448,13.17317084
2449,13.30647747
2450,13.12062978
2451,13.27136676
2452,13.25827633
2453,13.12009453
2454,13.14524206
2455,13.18607219
2456,13.29849549
2457,13.21536224
2458,13.18013783
2459,13.30861107
2460,13.30408836
2461,13.12388922
2462,13.16346205
2463,13.31405028
2464,13.11691529
2465,13.21622503
2466,13.18899064
2467,13.14545159
2468,13.17993116
2469,13.21717584
2470,13.22066212
2471,13.24874878
2472,13.31878903
2473,13.23215734
2474,13.19787676
2475,13.16937126
2476,13.18859042
2477,13.16787269
2478,13.11898703
2479,13.29030013
2480,13.20845954
2481,13.06206409
2482,13.18669769
2483,13.18884301
2484,13.17800988
2485,13.30842852
2486,13.23352446
2487,13.17014701
2488,13.22428427
2489,13.24753329
2490,13.23423253
2491,13.1598405
2492,13.24869009
2493,13.17066699
2494,13.399809
2495,13.19788828
2496,13.19526877
2497,13.248282
2498,13.17537059
2499,13.24010683
2500,13.1376277
2501,13.21202638
2502,13.25050433
2503,13.10419255
2504,13.22429912
2505,13.22481863
2506,13.19367887
2507,13.13832308
2508,13.2834148
2509,13.12132391
2510,13.2060382
2511,13.11621551
2512,13.19655869
2513,13.2365501
2514,13.28217117
2515,13.10390493
2516,13.25988835
2517,13.17993227
2518,13.27571915
2519,13.28731019
2520,13.26818928
2521,13.2532714
2522,13.22976232
2523,13.26190849
2524,13.20256447
2525,13.23661893
2526,13.23962984
2527,13.37614896
2528,13.16741807
2529,13.14151834
2530,13.23516116
2531,13.2771142
2532,13.16870174
2533,13.20705589
2534,13.15738946
2535,13.275975
2536,13.2399584
2537,13.14396211
2538,13.16903904
2539,13.18686253
2540,13.24356302
2541,13.16946355
2542,13.19780688
2543,13.19498063
2544,13.16795884
2545,13.19795158
2546,13.02709845
2547,13.19345301
2548,13.17145902
2549,13.14520185
2550,13.25141794
2551,13.27158782
2552,13.10646922
2553,13.14352877
2554,13.19620361
2555,13.121901
2556,13.2737636
2557,13.20347787
2558,13.18069673
2559,13.16072251
2560,13.17865239
2561,13.13188619
2562,13.13470606
2563,13.19087167
2564,13.22479924
2565,13.26287353
2566,13.1981394
2567,13.1473648
2568,13.21155637
2569,13.1568401
2570,13.19371818
2571,13.26975835
2572,13.16475546
2573,13.2250261
2574,13.17282089
2575,13.23220912
2576,13.28788037
2577,13.14477892
2578,13.16719736
2579,13.2986544
2580,13.18434773
2581,13.14208791
2582,13.21522594
2583,13.30888892
2584,13.17307728
2585,13.1875641
2586,13.22666309
2587,13.1577768
2588,13.17077145
2589,13.1195819
2590,13.22397678
2591,13.12244104
2592,13.27358266
2593,13.08879758
2594,13.18199658
2595,13.30866833
2596,13.1211104
2597,13.27891294
2598,13.21920621
2599,13.16608058
2600,13.15342482
2601,13.25008686
2602,13.24559796
2603,13.07892784
2604,13.19948238
2605,13.19526007
2606,13.20320101
2607,13.21997426
2608,13.18060709
2609,13.19908069
2610,13.21073619
2611,13.23759932
2612,13.166322
2613,13.13836453
2614,13.14964039
2615,13.12942982
2616,13.22041346
2617,13.25838633
2618,13.12821
2619,13.11837263
2620,13.19961547
2621,13.23366507
2622,13.14300332
2623,13.23393688
2624,13.20816067
2625,13.21307903
2626,13.19523775
2627,13.13243288
2628,13.28651018
2629,13.24051207
2630,13.18829484
2631,13.19520449
2632,13.24726443
2633,13.2116359
2634,13.20774852
2635,13.20035722
2636,13.1564232
2637,13.24256164
2638,13.24440512
2639,13.12768668
2640,13.17164496
2641,13.27068735
2642,13.2062146
2643,13.27765763
2644,13.1958736
2645,13.25707388
2646,13.20653032
2647,13.22796007
2648,13.21391932
2649,13.19478701
2650,13.16212468
2651,13.15321014
2652,13.21062956
2653,13.24979132
2654,13.15738547
2655,13.16859146
2656,13.21209169
2657,13.1834329
2658,13.13258053
2659,13.11449125
2660,13.15189477
2661,13.29940407
2662,13.17745415
2663,13.13337699
2664,13.16113577
2665,13.17565824
2666,13.20990211
2667,13.14472932
2668,13.17450509
2669,13.21617506
2670,13.09707035
2671,13.07533577
2672,13.18022114
2673,13.19116189
2674,13.21038799
2675,13.20559528
2676,13.1873571
2677,13.18281045
2678,13.12708021
2679,13.21951366
2680,13.24882358
2681,13.17765237
2682,13.1661413
2683,13.15997615
2684,13.17303477
2685,13.23114013
2686,13.20294247
2687,13.13304127
2688,13.10321642
2689,13.2655108
2690,13.17381353
2691,13.17805579
2692,13.18304966
2693,13.15224965
2694,13.18527642
2695,13.31920314
2696,13.14979783
2697,13.19604775
2698,13.16813529
2699,13.26431323
2700,13.25445833
2701,13.2845752
2702,13.14081907
2703,13.20840602
2704,13.27103368
2705,13.27816849
2706,13.23132497
2707,13.16312753
2708,13.13780102
2709,13.19886527
2710,13.22828821
2711,13.14633831
2712,13.16364166
2713,13.23511676
2714,13.19668915
2715,13.25242935
2716,13.2060506
2717,13.18203359
2718,13.18636393
2719,13.20751689
2720,13.27487881
2721,13.14944686
2722,13.11660393
2723,13.13510735
2724,13.2170258
2725,13.20263088
2726,13.12335133
2727,13.14580424
2728,13.22206604
2729,13.24205078
2730,13.20340017
2731,13.20775755
2732,13.20121979
2733,13.14778613
2734,13.20796253
2735,13.20873746
2736,13.07007181
2737,13.23080561
2738,13.22941991
2739,13.16826109
2740,13.17000528
2741,13.1826808
2742,13.16572502
2743,13.18588566
2744,13.2069485
2745,13.18526455
2746,13.08640372
2747,13.1160125
2748,13.2448364
2749,13.20096199
2750,13.22110489
2751,13.19251079
2752,13.0568182
2753,13.21885133
2754,13.19126206
2755,13.2597004
2756,13.23617304
2757,13.27752246
2758,13.24717077
2759,13.14711253
2760,13.21203049
2761,13.04751415
2762,13.24883981
2763,13.20703412
2764,13.20480233
2765,13.21415307
2766,13.19217895
2767,13.14592767
2768,13.20157343
2769,13.16994295
2770,13.1031692
2771,13.12137571
2772,13.22338909
2773,13.16206246
2774,13.13632431
2775,13.1852603
2776,13.18686153
2777,13.16815871
2778,13.1843107
2779,13.07438607
2780,13.23960571
2781,13.17380302
2782,13.20520336
2783,13.29636653
2784,13.24944318
2785,13.22201591
2786,13.19722952
2787,13.22153093
2788,13.18495728
2789,13.16772792
2790,13.18177301
2791,13.21207185
2792,13.13894584
2793,13.18325752
2794,13.28851153
2795,13.25682149
2796,13.21114414
2797,13.17569953
2798,13.10975905
2799,13.265578
2800,13.19468038
2801,13.16548468
2802,13.18942257
2803,13.28522047
2804,13.19595877
2805,13.20611846
2806,13.17454252
2807,13.15431673
2808,13.27418077
2809,13.19167488
2810,13.16877079
2811,13.12947019
2812,13.20664971
2813,13.24418025
2814,13.29299865
2815,13.20810951
2816,13.2355678
2817,13.28696192
2818,13.1394462
2819,13.30840281
2820,13.13997138
2821,13.16297404
2822,13.33034549
2823,13.24424734
2824,13.16817292
2825,13.16468494
2826,13.21659635
2827,13.14927647
2828,13.2275722
2829,13.22384702
2830,13.12205538
2831,13.11977574
2832,13.20996778
2833,13.11515826
2834,13.26817823
2835,13.24981441
2836,13.21258284
2837,13.18244843
2838,13.24042995
2839,13.18384957
2840,13.16334162
2841,13.18204456
2842,13.11055045
2843,13.10359934
2844,13.2306462
2845,13.17928326
2846,13.14581317
2847,13.09948158
2848,13.25752708
2849,13.23631618
2850,13.19181942
2851,13.11263074
2852,13.29860312
2853,13.26102007
2854,13.180375
2855,13.21537496
2856,13.19229107
2857,13.2006642
2858,13.17132703
2859,13.12991378
2860,13.13411663
2861,13.20861029
2862,13.24272627
2863,13.20253014
2864,13.2427623
2865,13.22708362
2866,13.16142501
2867,13.17613695
2868,13.2939622
2869,13.18539611
2870,13.18462683
2871,13.32571789
2872,13.2070659
2873,13.09343096
2874,13.20133911
2875,13.24080901
2876,13.1316412
2877,13.13497
2878,13.21957699
2879,13.2580691
2880,13.21850801
2881,13.19029327
2882,13.23671499
2883,13.21519128
2884,13.16774512
2885,13.26397869
2886,13.10767923
2887,13.23559693
2888,13.26012483
2889,13.25328938
2890,13.26923727
2891,13.22609784
2892,13.10494037
2893,13.2626292
2894,13.25911868
2895,13.19803151
2896,13.10965219
2897,13.10864278
2898,13.23492844
2899,13.15208376
2900,13.22510034
2901,13.1263182
2902,13.02317686
2903,13.29627138
2904,13.22137335
2905,13.24528248
2906,13.18189398
2907,13.14096238
2908,13.19587627
2909,13.21108256
2910,13.10957324
2911,13.14769294
2912,13.16371193
2913,13.17619363
2914,13.16081479
2915,13.17240947
2916,13.28420263
2917,13.16632975
2918,13.14245108
2919,13.23291139
2920,13.25063208
2921,13.24157616
2922,13.14673255
2923,13.33734825
2924,13.23562696
2925,13.26584702
2926,13.27557628
2927,13.20702135
2928,13.20472544
2929,13.23448603
2930,13.15627344
2931,13.24965506
2932,13.28614163
2933,13.18158367
2934,13.26894596
2935,13.05432469
2936,13.14683064
2937,13.0574653
2938,13.28398886
2939,13.21252745
2940,13.11413336
2941,13.20500333
2942,13.20217326
2943,13.15420476
2944,13.25339983
2945,13.19063176
2946,13.19413809
2947,13.17354811
2948,13.20935327
2949,13.17515602
2950,13.11179836
2951,13.17479492
2952,13.25980909
2953,13.27702031
2954,13.16627463
2955,13.23701824
2956,13.20752352
2957,13.26349772
2958,13.19361853
2959,13.22740413
2960,13.19547645
2961,13.09015175
2962,13.26384487
2963,13.19112216
2964,13.29640841
2965,13.1528742
2966,13.1474289
2967,13.23136761
2968,13.24602591
2969,13.27935739
2970,13.06723091
2971,13.07076934
2972,13.06032895
2973,13.22473899
2974,13.25121907
2975,13.21437588
2976,13.17128594
2977,13.22785644
2978,13.25296761
2979,13.20527125
2980,13.14180235
2981,13.16656754
2982,13.23620691
2983,13.16256533
2984,13.1035598
2985,13.26990508
2986,13.22945034
2987,13.18023635
2988,13.19375477
2989,13.20710331
2990,13.26453052
2991,13.1770255
2992,13.27422954
2993,13.22882144
2994,13.23549974
2995,13.21915243
2996,13.18263952
2997,13.2087087
2998,13.20803818
2999,13.1152232
3000,13.22102295
3001,13.21655505
3002,13.14016618
3003,13.28152805
3004,13.17717847
3005,13.20900064
3006,13.30167238
3007,13.15303856
3008,13.25275596
3009,13.10955751
3010,13.19761944
3011,13.24558892
3012,13.25476736
3013,13.22017564
3014,13.17768803
3015,13.15970047
3016,13.24362719
3017,13.23194926
3018,13.21718888
3019,13.18944865
3020,13.27541998
3021,13.21870603
3022,13.1573991
3023,13.08714453
3024,13.10079982
3025,13.28811169
3026,13.22510886
3027,13.26384716
3028,13.10307172
3029,13.16635181
3030,13.25554261
3031,13.10315471
3032,13.14010288
3033,13.20602354
3034,13.22730194
3035,13.16129328
3036,13.2595352
3037,13.13789529
3038,13.18712893
3039,13.09785909
3040,13.2273836
3041,13.17430012
3042,13.09557716
3043,13.15404515
3044,13.25320969
3045,13.25206373
3046,13.15564894
3047,13.15452914
3048,13.27449435
3049,13.26519146
3050,13.23101835
3051,13.32280425
3052,13.21694048
3053,13.1363866
3054,13.16652081
3055,13.25453329
3056,13.16926688
3057,13.17246455
3058,13.00253625
3059,13.21646562
3060,13.30166292
3061,13.21174875
3062,13.28493162
3063,13.3557698
3064,13.10494195
3065,13.23530302
3066,13.13749099
3067,13.1555073
3068,13.2362745
3069,13.25265942
3070,13.20570185
3071,13.23575221
3072,13.20432123
3073,13.19106329
3074,13.2007773
3075,13.15294606
3076,13.12940505
3077,13.0709009
3078,13.14050854
3079,13.06866005
3080,13.09801893
3081,13.2758382
3082,13.1677619
3083,13.13864587
3084,13.22239396
3085,13.20637668
3086,13.21624886
3087,13.1511235
3088,13.10380427
3089,13.14812976
3090,13.25392505
3091,13.30402606
3092,13.20792523
3093,13.1892818
3094,13.22656438
3095,13.28012535
3096,13.21601089
3097,13.08903615
3098,13.25006228
3099,13.34816481
3100,13.23661725
3101,13.2261152
3102,13.20627019
3103,13.20759417
3104,13.26878865
3105,13.21751961
3106,13.1526588
3107,13.21863101
3108,13.29477196
3109,13.24314667
3110,13.17515956
3111,13.28463106
3112,13.21960809
3113,13.19861081
3114,13.26593155
3115,13.12330681
3116,13.18634618
3117,13.17977296
3118,13.26867046
3119,13.27164988
3120,13.3010642
3121,13.13446783
3122,13.17609408
3123,13.1888041
3124,13.05938859
3125,13.23901095
3126,13.20418871
3127,13.12333504
3128,13.24019308
3129,13.2237656
3130,13.22221183
3131,13.17948219
3132,13.18504316
3133,13.18612648
3134,13.18629116
3135,13.12998446
3136,13.17442799
3137,13.23882966
3138,13.2167125
3139,13.11506908
3140,13.24328945
3141,13.18505135
3142,13.17724695
3143,13.19641634
3144,13.06762319
3145,13.14100956
3146,13.14207552
3147,13.25785912
3148,13.16376501
3149,13.17822429
3150,13.07223017
3151,13.1208843
3152,13.19986809
3153,13.23166306
3154,13.20295855
3155,13.17365034
3156,13.21181481
3157,13.21933801
3158,13.23047935
3159,13.29409199
3160,13.18109511
3161,13.2751326
3162,13.25254954
3163,13.16006665
3164,13.21596482
3165,13.17678016
3166,13.25163576
3167,13.11166624
3168,13.18198705
3169,13.08006524
3170,13.29405848
3171,13.24163547
3172,13.13820081
3173,13.1776728
3174,13.22528942
3175,13.22534655
3176,13.19004056
3177,13.20245836
3178,13.21884846
3179,13.15652434
3180,13.25003617
3181,13.31244262
3182,13.20853272
3183,13.29593086
3184,13.27780124
3185,13.23118193
3186,13.04996554
3187,13.29027997
3188,13.28996604
3189,13.22080424
3190,13.16355161
3191,13.17187116
3192,13.17116513
3193,13.19929635
3194,13.23350431
3195,13.25724309
3196,13.19333195
3197,13.18598266
3198,13.2385795
3199,13.14408305
3200,13.33343324
3201,13.20191219
3202,13.0881199
3203,13.28272718
3204,13.18234482
3205,13.22582743
3206,13.16778875
3207,13.31548623
3208,13.16099016
3209,13.18573767
3210,13.21434405
3211,13.2387108
3212,13.22085562
3213,13.18749827
3214,13.20279559
3215,13.105808
3216,13.19805956
3217,13.18245078
3218,13.19537429
3219,13.15668186
3220,13.1617868
3221,13.20778457
3222,13.22646682
3223,13.10549381
3224,13.16137814
3225,13.19412475
3226,13.15025199
3227,13.13437683
3228,13.24493523
3229,13.15415584
3230,13.15444647
3231,13.21501963
3232,13.26032028
3233,13.30614502
3234,13.14576016
3235,13.18885712
3236,13.23722441
3237,13.24792392
3238,13.26055788
3239,13.03533943
3240,13.18449175
3241,13.26107403
3242,13.18722589
3243,13.16244766
3244,13.15771775
3245,13.21919479
3246,13.13560755
3247,13.30680614
3248,13.25268247
3249,13.06618751
3250,13.21530802
3251,13.27371731
3252,13.29246642
3253,13.25390153
3254,13.13653896
3255,13.27032636
3256,13.08086043
3257,13.17001403
3258,13.32578027
3259,13.19940135
3260,13.18396036
3261,13.25818227
3262,13.22972081
3263,13.27144349
3264,13.17666973
3265,13.18075455
3266,13.14250256
3267,13.19391054
3268,13.21026966
3269,13.0839429
3270,13.33808665
3271,13.15601034
3272,13.22177844
3273,13.18543093
3274,13.25231567
3275,13.18991233
3276,13.26554406
3277,13.15094362
3278,13.21947253
3279,13.17578632
3280,13.18818263
3281,13.21385229
3282,13.31638346
3283,13.15811183
3284,13.14546623
3285,13.1890417
3286,13.23001305
3287,13.18299968
3288,13.17950622
3289,13.08864208
3290,13.24984844
3291,13.1437967
3292,13.27157341
3293,13.21639553
3294,13.1958407
3295,13.16359439
3296,13.26862388
3297,13.12031832
3298,13.19795906
3299,13.11888291
3300,13.17087169
3301,13.17202131
3302,13.28506394
3303,13.24927605
3304,13.25647645
3305,13.19515704
3306,13.19778343
3307,13.19178505
3308,13.24151411
3309,13.19599155
3310,13.21576827
3311,13.29301512
3312,13.21517508
3313,13.19761118
3314,13.26130799
3315,13.09056357
3316,13.20896885
3317,13.20973911
3318,13.24594751
3319,13.19231883
3320,13.22944723
3321,13.37887443
3322,13.19793593
3323,13.19499807
3324,13.22029552
3325,13.14859136
3326,13.15051081
3327,13.30679836
3328,13.11589033
3329,13.19828909
3330,13.29409127
3331,13.11109569
3332,13.26825907
3333,13.19729756
3334,13.14367881
3335,13.18985525
3336,13.20397055
3337,13.15378282
3338,13.14411059
3339,13.29128492
3340,13.1760363
3341,13.18736454
3342,13.11862761
3343,13.07471573
3344,13.25275615
3345,13.11497722
3346,13.20533797
3347,13.1712957
3348,13.14181338
3349,13.18692618
3350,13.11793553
3351,13.26738203
3352,13.19625073
3353,13.15553433
3354,13.08320579
3355,13.18763239
3356,13.26295917
3357,13.16176352
3358,13.19330087
3359,13.22044414
3360,13.1200739
3361,13.2651823
3362,13.25998672
3363,13.22270294
3364,13.09809086
3365,13.11585676
3366,13.26545948
3367,13.18633169
3368,13.26347546
3369,13.23624461
3370,13.27993549
3371,13.23306478
3372,13.38060088
3373,13.22673172
3374,13.18358158
3375,13.24918814
3376,13.24776105
3377,13.20996288
3378,13.28747719
3379,13.22493232
3380,13.18916361
3381,13.1766903
3382,13.27433897
3383,13.09553537
3384,13.22491698
3385,13.24048186
3386,13.22088979
3387,13.21296672
3388,13.17714666
3389,13.18850511
3390,13.19264468
3391,13.14279003
3392,13.2338661
3393,13.24782513
3394,13.19188232
3395,13.20443216
3396,13.20821767
3397,13.2597131
3398,13.15980389
3399,13.30022037
3400,13.21666795
3401,13.18932689
3402,13.15194231
3403,13.13919989
3404,13.1134922
3405,13.15691992
3406,13.16146672
3407,13.16155915
3408,13.12081572
3409,13.21794463
3410,13.19809635
3411,13.1680826
3412,13.23443751
3413,13.29219499
3414,13.18832882
3415,13.25755822
3416,13.17672366
3417,13.18205189
3418,13.06975503
3419,13.17299572
3420,13.140759
3421,13.23271548
3422,13.1526346
3423,13.10781117
3424,13.2442612
3425,13.1498869
3426,13.30987416
3427,13.19471492
3428,13.08841756
3429,13.16892883
3430,13.21872034
3431,13.24727202
3432,13.19997436
3433,13.20330562
3434,13.16477526
3435,13.19702165
3436,13.20465227
3437,13.20121103
3438,13.21671455
3439,13.17898365
3440,13.24060158
3441,13.15085736
3442,13.15290879
3443,13.15554312
3444,13.19533298
3445,13.20309408
3446,13.12408104
3447,13.2951931
3448,13.22086592
3449,13.22025113
3450,13.12860731
3451,13.20880579
3452,13.18592626
3453,13.28931681
3454,13.14778365
3455,13.21890567
3456,13.13794135
3457,13.19411733
3458,13.09205858
3459,13.150469
3460,13.27495801
3461,13.17891472
3462,13.18594774
3463,13.19579546
3464,13.19034995
3465,13.20733989
3466,13.22753409
3467,13.32074014
3468,13.1873771
3469,13.13569638
3470,13.24765685
3471,13.12027033
3472,13.17236901
3473,13.16757108
3474,13.19138369
3475,13.15598875
3476,13.23554101
3477,13.07653288
3478,13.16424839
3479,13.25284335
3480,13.23949792
3481,13.2370797
3482,13.22842134
3483,13.27768443
3484,13.20479287
3485,13.12728501
3486,13.17759901
3487,13.15381256
3488,13.14696669
3489,13.23309077
3490,13.26778721
3491,13.12921531
3492,13.23943076
3493,13.21152244
3494,13.13507383
3495,13.22392258
3496,13.12365044
3497,13.19669511
3498,13.29730452
3499,13.22513254
3500,13.20285416
3501,13.18117619
3502,13.1916795
3503,13.27104042
3504,13.07934353
3505,13.13096972
3506,13.24112319
3507,13.21652126
3508,13.27939091
3509,13.28887902
3510,13.17489776
3511,13.13306638
3512,13.23894711
3513,13.21323294
3514,13.17371152
3515,13.17049649
3516,13.16884276
3517,13.29188314
3518,13.22505688
3519,13.14038759
3520,13.20328293
3521,13.1451077
3522,13.18230827
3523,13.34799051
3524,13.22202774
3525,13.19865976
3526,13.14767833
3527,13.24557699
3528,13.13206882
3529,13.24285514
3530,13.15544725
3531,13.16574677
3532,13.29904034
3533,13.18952622
3534,13.22778642
3535,13.18720739
3536,13.07759784
3537,13.21225627
3538,13.1465532
3539,13.23338259
3540,13.16941201
3541,13.13026088
3542,13.19622118
3543,13.25116274
3544,13.14651524
3545,13.12710083
3546,13.2716506
3547,13.176377
3548,13.12370906
3549,13.20625361
3550,13.13886532
3551,13.21303448
3552,13.3036475
3553,13.16907273
3554,13.14941974
3555,13.1979587
3556,13.25231263
3557,13.31163808
3558,13.2273904
3559,13.2043075
3560,13.23738121
3561,13.24965052
3562,13.14331195
3563,13.24775288
3564,13.15920725
3565,13.11187856
3566,13.15789113
3567,13.12847631
3568,13.28061121
3569,13.23817449
3570,13.24036137
3571,13.1914467
3572,13.21626948
3573,13.28647893
3574,13.2427709
3575,13.24930806
3576,13.33105123
3577,13.20652393
3578,13.13039854
3579,13.24487188
3580,13.17517841
3581,13.12637321
3582,13.11748286
3583,13.17208845
3584,13.28246017
3585,13.11665341
3586,13.22320055
3587,13.183609
3588,13.18279983
3589,13.1910921
3590,13.18380828
3591,13.15580363
3592,13.2514256
3593,13.25009755
3594,13.20823369
3595,13.19736268
3596,13.27323195
3597,13.16403823
3598,13.18871396
3599,13.32423366
3600,13.20205744
3601,13.14691074
3602,13.16768732
3603,13.17542549
3604,13.2258925
3605,13.32446206
3606,13.17283614
3607,13.23477346
3608,13.14384181
3609,13.22446636
3610,13.19353518
3611,13.11039454
3612,13.16096696
3613,13.22045377
3614,13.14671544
3615,13.23541116
3616,13.26781676
3617,13.17340571
3618,13.15684144
3619,13.07481716
3620,13.24709921
3621,13.28582362
3622,13.16974722
3623,13.20911483
3624,13.2320149
3625,13.27576938
3626,13.16062314
3627,13.18394553
3628,13.11888661
3629,13.15705072
3630,13.20703037
3631,13.1528075
3632,13.1522598
3633,13.23297575
3634,13.07003299
3635,13.19437702
3636,13.10490366
3637,13.24186913
3638,13.22228823
3639,13.13535289
3640,13.15267412
3641,13.17121124
3642,13.21241778
3643,13.24971438
3644,13.20363734
3645,13.19672397
3646,13.19706564
3647,13.26662145
3648,13.20767412
3649,13.07029373
3650,13.17925211
3651,13.24049322
3652,13.10335841
3653,13.18140531
3654,13.20762292
3655,13.14966693
3656,13.13628259
3657,13.26856011
3658,13.19244373
3659,13.21171433
3660,13.19402102
3661,13.17163434
3662,13.34123567
3663,13.18470501
3664,13.20560564
3665,13.30000798
3666,13.24141523
3667,13.28034179
3668,13.25783512
3669,13.26306076
3670,13.18473181
3671,13.17368883
3672,13.26882035
3673,13.16899069
3674,13.21663721
3675,13.22885779
3676,13.22492294
3677,13.25684898
3678,13.23077497
3679,13.08134472
3680,13.14702818
3681,13.26757805
3682,13.10685124
3683,13.03843984
3684,13.18763427
3685,13.12816734
3686,13.30250712
3687,13.24898578
3688,13.29872028
3689,13.25592577
3690,13.20548964
3691,13.2868058
3692,13.21314792
3693,13.27411718
3694,13.21985465
3695,13.28075331
3696,13.24542134
3697,13.19666678
3698,13.18789394
3699,13.08389688
3700,13.18075775
3701,13.17381205
3702,13.26533682
3703,13.14801041
3704,13.38151567
3705,13.15812908
3706,13.20537297
3707,13.24979578
3708,13.152817
3709,13.13078547
3710,13.23010104
3711,13.22017933
3712,13.29313865
3713,13.22954295
3714,13.20000618
3715,13.18623076
3716,13.12453377
3717,13.2000086
3718,13.19430476
3719,13.28496199
3720,13.23200729
3721,13.17195744
3722,13.14546407
3723,13.1856732
3724,13.26385244
3725,13.21472154
3726,13.22763078
3727,13.09733165
3728,13.181182
3729,13.22782805
3730,13.17369722
3731,13.22753808
3732,13.21165702
3733,13.14967467
3734,13.17237255
3735,13.06050697
3736,13.20820968
3737,13.25566952
3738,13.18761156
3739,13.17373378
3740,13.29342134
3741,13.21574535
3742,13.15712525
3743,13.27754974
3744,13.33998707
3745,13.22180176
3746,13.21109508
3747,13.16775448
3748,13.17991177
3749,13.14072364
3750,13.17272212
3751,13.20431421
3752,13.2735368
3753,13.10143659
3754,13.3028873
3755,13.30340215
3756,13.2445519
3757,13.29528796
3758,13.25981411
3759,13.20051619
3760,13.26106121
3761,13.13015246
3762,13.12199444
3763,13.19266861
3764,13.32300862
3765,13.3418613
3766,13.17952697
3767,13.1424576
3768,13.11319203
3769,13.30084674
3770,13.2372927
3771,13.25501638
3772,13.20267512
3773,13.16236566
3774,13.18461031
3775,13.23889511
3776,13.16232097
3777,13.22443397
3778,13.20389142
3779,13.24925277
3780,13.21951505
3781,13.16998892
3782,13.23534858
3783,13.12263649
3784,13.1574446
3785,13.18840205
3786,13.22833325
3787,13.1738698
3788,13.17195257
3789,13.29146076
3790,13.22524538
3791,13.08062049
3792,13.17402196
3793,13.15952151
3794,13.17205197
3795,13.17870096
3796,13.27178529
3797,13.08801146
3798,13.23380515
3799,13.17053475
3800,13.26339117
3801,13.16797698
3802,13.20792958
3803,13.21569867
3804,13.1133451
3805,13.17942952
3806,13.2402376
3807,13.26403815
3808,13.21681287
3809,13.28649259
3810,13.24924665
3811,13.3003195
3812,13.16656061
3813,13.22697495
3814,13.15859209
3815,13.29703571
3816,13.16353314
3817,13.16381679
3818,13.21941916
3819,13.19310422
3820,13.25237839
3821,13.20781686
3822,13.1786155
3823,13.11059265
3824,13.11148692
3825,13.21252518
3826,13.23324989
3827,13.29464431
3828,13.12899318
3829,13.1634579
3830,13.20143106
3831,13.08345116
3832,13.20833385
3833,13.16352507
3834,13.21606441
3835,13.21786451
3836,13.29072494
3837,13.1528529
3838,13.22026598
3839,13.29714497
3840,13.15411292
3841,13.25376173
3842,13.21072008
3843,13.13814357
3844,13.24648514
3845,13.14924856
3846,13.270751
3847,13.11552267
3848,13.12099437
3849,13.17586554
3850,13.14059255
3851,13.20640612
3852,13.10593091
3853,13.26153419
3854,13.27971735
3855,13.20566078
3856,13.1616471
3857,13.30786321
3858,13.28144726
3859,13.19457379
3860,13.04727534
3861,13.2399969
3862,13.18823246
3863,13.23493009
3864,13.18877848
3865,13.13986043
3866,13.30539218
3867,13.23583283
3868,13.17190473
3869,13.15672415
3870,13.21507455
3871,13.14454756
3872,13.16714631
3873,13.16795559
3874,13.16419129
3875,13.27277216
3876,13.13669923
3877,13.18745935
3878,13.23976137
3879,13.22821356
3880,13.2616304
3881,13.14329104
3882,13.17435486
3883,13.2197038
3884,13.17568062
3885,13.16320351
3886,13.19550894
3887,13.1507657
3888,13.23347508
3889,13.22295821
3890,13.08591668
3891,13.29693696
3892,13.19226345
3893,13.2344711
3894,13.3639179
3895,13.14400993
3896,13.1406831
3897,13.22727658
3898,13.15977188
3899,13.22837162
3900,13.16489322
3901,13.12713093
3902,13.26874508
3903,13.22112422
3904,13.02977943
3905,13.23680765
3906,13.22599167
3907,13.25067715
3908,13.22101523
3909,13.27597763
3910,13.23172833
3911,13.20159364
3912,13.18013988
3913,13.17703195
3914,13.15529273
3915,13.19548434
3916,13.24289966
3917,13.11643093
3918,13.10723039
3919,13.19626524
3920,13.18969092
3921,13.2797663
3922,13.13548082
3923,13.33621366
3924,13.1972524
3925,13.17652375
3926,13.14253974
3927,13.26474865
3928,13.12527663
3929,13.17452833
3930,13.2039978
3931,13.1579664
3932,13.21395804
3933,13.24755384
3934,13.26633334
3935,13.05613372
3936,13.24287535
3937,13.08593883
3938,13.18280625
3939,13.24553435
3940,13.18087465
3941,13.16604289
3942,13.12517462
3943,13.2531865
3944,13.17877753
3945,13.26746597
3946,13.11093835
3947,13.3060001
3948,13.22407823
3949,13.1647766
3950,13.31424645
3951,13.19860146
3952,13.19436465
3953,13.22572082
3954,13.25097348
3955,13.31904644
3956,13.21363086
3957,13.22397987
3958,13.23467627
3959,13.19981713
3960,13.1089801
3961,13.15985454
3962,13.25530628
3963,13.22403565
3964,13.19287777
3965,13.16082146
3966,13.24349385
3967,13.13354172
3968,13.22019472
3969,13.18698864
3970,13.28620983
3971,13.26609061
3972,13.19949229
3973,13.13967896
3974,13.23333899
3975,13.15478276
3976,13.12549688
3977,13.15261113
3978,13.11881767
3979,13.22121108
3980,13.2305017
3981,13.17408736
3982,13.33609866
3983,13.15586807
3984,13.22615743
3985,13.23599539
3986,13.14759418
3987,13.19720751
3988,13.23780429
3989,13.16657932
3990,13.17491217
3991,13.27213578
3992,13.25384758
3993,13.24506547
3994,13.16543317
3995,13.21645412
3996,13.26423982
3997,13.13870046
3998,13.25415572
3999,13.11466369
4000,13.24528176
