Raman Shift,Intensity
92.56775,183.9536
93.04987,189.6543
93.53198,196.0555
94.0141,199.0298
94.49622,199.166
94.97833,198.1446
95.46045,197.225
95.94257,196.3801
96.42468,195.5152
96.9068,194.8172
97.38892,194.1699
97.87103,193.473
98.35315,192.5453
98.83527,191.4676
99.31738,190.9155
99.7995,191.2016
100.2816,191.1568
100.7637,190.4573
101.2458,189.5683
101.728,188.8914
102.2101,188.5139
102.6922,188.3279
103.1743,188.1921
103.6564,188.0882
104.1385,187.9857
104.6207,187.6625
105.1028,187.2662
105.5849,187.3721
106.067,188.4118
106.5491,189.7373
107.0313,190.7037
107.5134,191.2856
107.9955,191.4936
108.4776,191.2942
108.9597,190.6383
109.4418,189.7494
109.924,188.4883
110.4061,187.1295
110.8882,185.7757
111.3703,184.4366
111.8524,183.3047
112.3345,182.9687
112.8167,184.4144
113.2988,185.374
113.7809,185.238
114.263,184.5062
114.7451,183.8265
115.2272,183.6158
115.7094,183.8404
116.1915,183.9055
116.6736,183.5816
117.1557,183.3449
117.6378,183.3606
118.1199,183.6084
118.6021,183.9996
119.0842,184.5136
119.5663,185.1484
120.0484,185.4898
120.5305,185.075
121.0126,184.645
121.4948,184.9752
121.9769,186.2246
122.459,187.6344
122.9411,188.453
123.4232,188.8049
123.9053,188.9245
124.3875,188.6371
124.8696,188.154
125.3517,188.158
125.8338,189.1777
126.3159,190.0481
126.798,189.7867
127.2802,188.5947
127.7623,187.4281
128.2444,187.1753
128.7265,187.9541
129.2086,188.4138
129.6907,188.0488
130.1729,187.6221
130.655,187.5987
131.1371,187.9786
131.6192,188.3284
132.1013,188.0311
132.5834,186.7725
133.0656,185.4085
133.5477,183.5847
134.0298,181.8898
134.5119,180.8364
134.994,180.5819
135.4761,180.837
135.9583,180.9593
136.4404,181.1106
136.9225,180.905
137.4046,180.1589
137.8867,179.0726
138.3688,177.9076
138.851,176.7604
139.3331,175.6472
139.8152,174.6356
140.2973,173.7705
140.7794,172.9113
141.2615,171.9643
141.7437,170.9603
142.2258,170.0268
142.7079,169.2728
143.19,168.6207
143.6721,167.8914
144.1542,167.0389
144.6364,166.1515
145.1185,165.3313
145.6006,164.5972
146.0827,163.8184
146.5648,162.7755
147.0469,161.6945
147.5291,160.8317
148.0112,160.3268
148.4933,160.0406
148.9754,159.6711
149.4575,159.2044
149.9396,158.6607
150.4218,157.9279
150.9039,157.1597
151.386,156.6163
151.8681,156.5251
152.3502,156.7794
152.8323,156.458
153.3145,154.6012
153.7966,153.0685
154.2787,152.2992
154.7608,152.1433
155.2429,152.2644
155.725,152.4394
156.2072,152.6901
156.6893,152.6164
157.1714,152.1391
157.6535,151.4837
158.1356,150.554
158.6177,149.4605
159.0999,148.5685
159.582,148.2723
160.0641,148.7058
160.5462,148.7832
161.0283,148.0971
161.5104,147.3486
161.9926,147.1731
162.4747,147.6465
162.9568,148.1853
163.4389,148.0531
163.921,147.2957
164.4031,146.884
164.8853,147.3009
165.3674,148.0662
165.8495,148.4749
166.3316,148.3905
166.8137,148.0445
167.2958,147.4989
167.778,146.8264
168.2601,146.3674
168.7422,146.5065
169.2243,147.0497
169.7064,147.1699
170.1885,146.4858
170.6707,145.7269
171.1528,145.3192
171.6349,145.2403
172.117,145.3517
172.5991,145.692
173.0812,146.2895
173.5634,146.5076
174.0455,145.9008
174.5276,145.2083
175.0097,144.6336
175.4918,144.2323
175.9739,144.0463
176.4561,144.1747
176.9382,144.748
177.4203,145.1978
177.9024,145.5598
178.3845,145.7883
178.8666,145.7846
179.3488,145.5738
179.8309,145.3127
180.313,145.2312
180.7951,145.4953
181.2772,145.5556
181.7593,145.273
182.2415,144.9057
182.7236,144.6866
183.2057,144.6569
183.6878,144.625
184.1699,144.2687
184.652,143.1975
185.1342,142.617
185.6163,142.966
186.0984,143.6425
186.5805,143.9831
187.0626,143.7813
187.5447,143.3417
188.0269,143.1931
188.509,143.421
188.9911,143.5381
189.4732,143.4206
189.9553,143.1245
190.4374,142.6877
190.9196,142.0353
191.4017,141.4283
191.8838,141.2518
192.3659,141.4987
192.848,141.8885
193.3301,142.5462
193.8123,143.3042
194.2944,143.4725
194.7765,142.5266
195.2586,141.3452
195.7407,140.9226
196.2228,141.2725
196.705,141.6631
197.1871,141.6271
197.6692,141.1724
198.1513,140.4269
198.6334,138.8684
199.1155,137.5112
199.5977,137.1839
200.0798,137.8905
200.5619,138.8028
201.044,139.1157
201.5261,138.7445
202.0082,138.3455
202.4904,137.8658
202.9725,137.4743
203.4546,137.3707
203.9367,137.529
204.4188,137.6481
204.9009,137.2439
205.3831,135.9742
205.8652,135.2519
206.3473,135.5219
206.8294,136.0004
207.3115,136.2462
207.7936,136.1888
208.2758,136.0478
208.7579,136.1922
209.24,137.0459
209.7221,137.1997
210.2042,136.0397
210.6863,134.7333
211.1685,134.1297
211.6506,134.3667
212.1327,134.9272
212.6148,135.0462
213.0969,134.3317
213.579,133.9994
214.0612,134.3391
214.5433,134.8514
215.0254,135.1949
215.5075,135.2743
215.9896,135.1263
216.4717,134.7611
216.9539,133.9553
217.436,133.5007
217.9181,133.7309
218.4002,134.1579
218.8823,134.2465
219.3644,133.8644
219.8466,133.3797
220.3287,133.3109
220.8108,133.7279
221.2929,134.1478
221.775,134.5899
222.2571,134.9707
222.7393,135.183
223.2214,135.2007
223.7035,135.0746
224.1856,134.8094
224.6677,134.4183
225.1498,134.0463
225.632,133.6968
226.1141,133.3976
226.5962,133.1907
227.0783,133.0801
227.5604,133.0734
228.0425,133.2505
228.5247,133.563
229.0068,133.8099
229.4889,133.9267
229.971,133.9215
230.4531,133.7676
230.9352,133.3644
231.4174,133.0227
231.8995,132.9923
232.3816,133.2036
232.8637,133.4928
233.3458,133.9782
233.8279,134.5009
234.3101,134.4761
234.7922,133.5761
235.2743,132.6456
235.7564,132.1253
236.2385,131.9269
236.7206,131.8806
237.2028,131.8973
237.6849,131.9917
238.167,132.2761
238.6491,133.0358
239.1312,133.5384
239.6133,133.3457
240.0955,132.7511
240.5776,132.2642
241.0597,132.2455
241.5418,132.5587
242.0239,132.5086
242.506,131.668
242.9882,131.0493
243.4703,130.9607
243.9524,131.2538
244.4345,131.7763
244.9166,132.5156
245.3987,133.3318
245.8809,133.5211
246.363,132.5055
246.8451,131.5634
247.3272,130.883
247.8093,130.4439
248.2914,130.2721
248.7736,130.407
249.2557,130.716
249.7378,130.636
250.2199,129.4717
250.702,128.7908
251.1841,129.1683
251.6663,130.0067
252.1484,130.6002
252.6305,130.6083
253.1126,130.1916
253.5947,129.8521
254.0768,129.6624
254.559,129.4755
255.0411,129.2216
255.5232,128.9887
256.0053,128.9074
256.4874,129.0321
256.9695,129.2543
257.4517,129.3116
257.9338,129.0612
258.4159,128.7965
258.898,128.4691
259.3801,128.149
259.8622,127.8963
260.3444,127.733
260.8265,127.6597
261.3086,127.6825
261.7907,127.9021
262.2728,128.0623
262.7549,128.0655
263.2371,128.0534
263.7192,128.1496
264.2013,128.3896
264.6834,128.769
265.1655,129.3224
265.6476,130.2591
266.1298,130.8109
266.6119,130.5675
267.094,130.1534
267.5761,130.2184
268.0582,130.8769
268.5403,131.6643
269.0225,132.0198
269.5046,131.8052
269.9867,131.7558
270.4688,131.9712
270.9509,132.3067
271.433,132.7815
271.9152,133.3657
272.3973,133.6691
272.8794,133.1618
273.3615,131.775
273.8436,131.0323
274.3257,131.3246
274.8079,132.0067
275.29,132.6464
275.7721,133.2097
276.2542,133.7486
276.7363,134.3583
277.2184,134.9776
277.7006,135.3022
278.1827,135.0946
278.6648,134.7756
279.1469,134.5545
279.629,134.4488
280.1111,134.5531
280.5933,134.983
281.0754,135.6657
281.5575,136.2986
282.0396,136.9633
282.5217,137.4823
283.0038,137.6866
283.486,137.6232
283.9681,137.5424
284.4502,137.5674
284.9323,137.631
285.4144,137.5305
285.8965,137.0683
286.3787,136.9089
286.8608,137.7075
287.3429,139.179
287.825,140.3194
288.3071,140.8318
288.7892,140.7996
289.2714,140.2163
289.7535,138.9766
290.2356,138.0584
290.7177,138.2956
291.1998,139.2141
291.6819,139.4831
292.1641,138.6226
292.6462,137.4091
293.1283,136.5906
293.6104,136.1322
294.0925,136.0073
294.5746,136.4983
295.0568,137.2705
295.5389,137.639
296.021,137.4667
296.5031,137.062
296.9852,136.5424
297.4673,135.9753
297.9495,135.578
298.4316,135.5005
298.9137,135.6036
299.3958,135.704
299.8779,135.8039
300.36,135.8695
300.8422,135.9479
301.3243,135.9632
301.8064,135.7445
302.2885,135.0956
302.7706,134.3478
303.2527,133.9556
303.7349,133.953
304.217,133.7887
304.6991,132.9966
305.1812,131.9903
305.6633,131.3595
306.1454,131.2833
306.6276,131.3259
307.1097,131.0841
307.5918,130.5776
308.0739,130.1386
308.556,129.8835
309.0381,129.7486
309.5203,129.6654
310.0024,129.6375
310.4845,129.602
310.9666,129.5042
311.4487,129.3578
311.9308,129.2491
312.413,129.2616
312.8951,129.2112
313.3772,128.8738
313.8593,128.2951
314.3414,127.7885
314.8235,127.6348
315.3057,127.6627
315.7878,127.3352
316.2699,126.4058
316.752,125.6167
317.2341,125.7126
317.7162,126.3606
318.1984,126.8562
318.6805,126.853
319.1626,126.5964
319.6447,126.4741
320.1268,126.5144
320.6089,126.5526
321.0911,126.5454
321.5732,126.4616
322.0553,126.2328
322.5374,125.7942
323.0195,125.2894
323.5016,124.8181
323.9838,124.3763
324.4659,124.0935
324.948,124.0564
325.4301,124.1949
325.9122,124.4492
326.3943,124.8521
326.8765,125.1906
327.3586,125.2656
327.8407,125.1234
328.3228,125.0405
328.8049,125.1576
329.287,125.2374
329.7692,124.9224
330.2513,124.2595
330.7334,123.8334
331.2155,124.1745
331.6976,124.934
332.1797,125.2954
332.6619,125.1282
333.144,124.6882
333.6261,123.8708
334.1082,122.9075
334.5903,122.4259
335.0724,123.037
335.5546,124.0244
336.0367,124.4047
336.5188,124.1168
337.0009,123.8244
337.483,124.0246
337.9651,124.4292
338.4473,124.4626
338.9294,123.8317
339.4115,123.186
339.8936,123.0919
340.3757,123.4853
340.8578,123.8896
341.34,124.1472
341.8221,124.3128
342.3042,124.5682
342.7863,125.0041
343.2684,125.0759
343.7505,124.0487
344.2327,122.4747
344.7148,121.8336
345.1969,122.6733
345.679,123.8631
346.1611,123.8799
346.6432,122.933
347.1254,122.4655
347.6075,123.2221
348.0896,124.4792
348.5717,125.3951
349.0538,125.9007
349.5359,126.1556
350.0181,126.1987
350.5002,126.0708
350.9823,125.9894
351.4644,126.0729
351.9465,126.1147
352.4286,126.0239
352.9108,125.7881
353.3929,125.285
353.875,124.3155
354.3571,123.1867
354.8392,122.6467
355.3214,122.7535
355.8035,123.1829
356.2856,124.0362
356.7677,125.0967
357.2498,125.9979
357.7319,126.643
358.2141,127.0716
358.6962,127.3203
359.1783,127.3819
359.6604,127.3173
360.1425,127.0489
360.6246,126.7087
361.1068,126.3493
361.5889,125.9959
362.071,125.8207
362.5531,126.005
363.0352,126.5482
363.5173,126.9738
363.9995,127.3143
364.4816,127.522
364.9637,127.5321
365.4458,127.3871
365.9279,127.1448
366.41,126.799
366.8922,126.4599
367.3743,126.5171
367.8564,127.4633
368.3385,128.0832
368.8206,128.0453
369.3027,127.6753
369.7849,127.2575
370.267,126.8906
370.7491,126.6936
371.2312,126.8907
371.7133,127.7799
372.1954,128.1098
372.6776,127.4135
373.1597,126.5938
373.6418,126.126
374.1239,126.0493
374.606,126.2524
375.0881,126.6975
375.5703,127.3671
376.0524,127.6931
376.5345,127.3168
377.0166,127.0182
377.4987,127.0241
377.9808,127.2035
378.463,127.3585
378.9451,127.3982
379.4272,127.3631
379.9093,127.3465
380.3914,127.3444
380.8735,127.3713
381.3557,127.4762
381.8378,127.5729
382.3199,127.6057
382.802,127.5629
383.2841,127.4516
383.7662,127.2388
384.2484,126.8731
384.7305,126.7615
385.2126,127.0966
385.6947,127.5141
386.1768,128.0908
386.6589,128.6518
387.1411,128.8472
387.6232,128.3957
388.1053,127.5355
388.5874,127.1701
389.0695,127.6603
389.5516,127.9686
390.0338,127.7332
390.5159,127.3028
390.998,126.9743
391.4801,126.8315
391.9622,126.803
392.4443,126.9434
392.9265,127.3275
393.4086,127.1319
393.8907,125.4886
394.3728,123.9672
394.8549,123.589
395.337,124.1656
395.8192,124.8391
396.3013,124.9559
396.7834,124.754
397.2655,125.168
397.7476,126.5808
398.2297,127.6096
398.7119,127.1605
399.194,126.0047
399.6761,125.076
400.1582,124.6218
400.6403,124.4229
401.1224,124.3422
401.6046,124.3669
402.0867,124.269
402.5688,123.8492
403.0509,123.43
403.533,123.4125
404.0151,123.8004
404.4973,124.2334
404.9794,124.7375
405.4615,125.1335
405.9436,124.964
406.4257,124.1023
406.9078,123.2997
407.39,123.306
407.8721,123.9392
408.3542,124.1913
408.8363,123.7307
409.3184,123.1076
409.8005,122.5644
410.2827,122.1329
410.7648,121.9751
411.2469,122.2377
411.729,122.6653
412.2111,122.6259
412.6932,121.8957
413.1754,121.334
413.6575,121.1313
414.1396,121.1435
414.6217,121.3214
415.1038,121.6212
415.5859,121.7994
416.0681,121.5864
416.5502,120.9333
417.0323,120.4023
417.5144,119.9538
417.9965,119.6437
418.4786,119.5355
418.9608,119.5786
419.4429,119.7182
419.925,119.9366
420.4071,120.146
420.8892,120.0908
421.3713,119.5146
421.8535,119.0538
422.3356,118.7112
422.8177,118.4909
423.2998,118.4453
423.7819,118.5512
424.264,118.693
424.7462,118.7777
425.2283,118.8148
425.7104,118.6489
426.1925,117.9736
426.6746,117.4233
427.1567,117.1721
427.6389,117.1643
428.121,117.3242
428.6031,117.6314
429.0852,118.0232
429.5673,118.3993
430.0494,118.7947
430.5316,119.0521
431.0137,119.2887
431.4958,119.2509
431.9779,118.5049
432.46,117.1208
432.9421,115.9786
433.4243,115.967
433.9064,116.8015
434.3885,117.2219
434.8706,117.0656
435.3527,116.7381
435.8348,116.4079
436.317,116.098
436.7991,115.8577
437.2812,115.7393
437.7633,115.6382
438.2454,115.338
438.7275,114.9035
439.2097,114.8474
439.6918,115.4723
440.1739,116.3642
440.656,116.9674
441.1381,117.3179
441.6202,117.3426
442.1024,116.7359
442.5845,115.947
443.0666,115.519
443.5487,115.4874
444.0308,115.5253
444.5129,115.3893
444.9951,115.1027
445.4772,114.8919
445.9593,114.7246
446.4414,114.6578
446.9235,114.7613
447.4056,114.9618
447.8878,115.2487
448.3699,115.6073
448.852,115.7739
449.3341,115.2896
449.8162,113.7856
450.2983,112.674
450.7805,111.8789
451.2626,111.4793
451.7447,111.7509
452.2268,112.4663
452.7089,113.0846
453.191,113.2323
453.6732,113.0226
454.1553,112.9651
454.6374,113.4109
455.1195,113.3809
455.6016,112.1312
456.0837,110.7822
456.5659,110.4444
457.048,111.2471
457.5301,112.2276
458.0122,112.2757
458.4943,111.4156
458.9764,110.9932
459.4586,111.3508
459.9407,111.7014
460.4228,111.5206
460.9049,111.0698
461.387,110.8502
461.8691,111.1727
462.3513,111.5714
462.8334,111.3962
463.3155,110.6719
463.7976,110.0487
464.2797,109.6913
464.7618,109.5723
465.244,109.7182
465.7261,110.1353
466.2082,110.4529
466.6903,110.4897
467.1724,110.3919
467.6545,110.3337
468.1367,110.3273
468.6188,110.3053
469.1009,110.2272
469.583,110.0961
470.0651,109.9243
470.5472,109.6245
471.0294,109.4004
471.5115,109.4715
471.9936,109.5776
472.4757,109.2236
472.9578,108.3349
473.4399,107.5542
473.9221,107.7259
474.4042,109.1033
474.8863,109.9638
475.3684,109.8912
475.8505,109.8134
476.3326,110.2841
476.8148,110.941
477.2969,111.0653
477.779,110.2917
478.2611,109.0869
478.7432,108.4591
479.2253,108.5935
479.7075,108.7944
480.1896,109.1493
480.6717,109.4169
481.1538,109.2816
481.6359,108.8792
482.118,108.7725
482.6002,109.5433
483.0823,110.8215
483.5644,111.5042
484.0465,111.425
484.5286,111.3472
485.0107,111.6769
485.4929,112.1505
485.975,112.4914
486.4571,112.6834
486.9392,112.6701
487.4213,112.2542
487.9034,111.6297
488.3856,111.2003
488.8677,111.0197
489.3498,111.0904
489.8319,111.447
490.314,112.0951
490.7961,112.8212
491.2783,114.0295
491.7604,114.8963
492.2425,114.7426
492.7246,114.0421
493.2067,113.7477
493.6888,114.1954
494.171,114.8599
494.6531,114.8602
495.1352,113.7281
495.6173,113.4446
496.0994,114.7645
496.5815,116.0744
497.0637,116.5302
497.5458,116.3608
498.0279,116.1988
498.51,116.4066
498.9921,116.8055
499.4742,116.9223
499.9564,116.6146
500.4385,116.3816
500.9206,116.065
501.4027,116.0223
501.8848,116.7044
502.3669,117.9746
502.8491,119.0916
503.3312,119.5369
503.8133,119.465
504.2954,119.1355
504.7775,118.4076
505.2596,118.1228
505.7418,119.0734
506.2239,120.4806
506.706,121.1982
507.1881,121.0338
507.6702,120.7419
508.1523,120.6395
508.6345,120.6732
509.1166,120.7207
509.5987,120.7637
510.0808,120.9909
510.5629,121.6521
511.045,122.674
511.5272,123.2396
512.0093,122.9952
512.4914,122.7816
512.9735,122.9559
513.4556,123.2567
513.9377,123.3314
514.4199,123.0884
514.902,122.6703
515.3841,122.2104
515.8662,121.6501
516.3483,121.4555
516.8304,122.0288
517.3126,122.5523
517.7947,122.6894
518.2768,122.6669
518.7589,122.8788
519.241,123.4946
519.7231,124.1853
520.2053,124.4215
520.6874,124.1612
521.1695,124.0591
521.6516,124.3407
522.1337,124.6158
522.6158,124.6129
523.098,124.3948
523.5801,124.1329
524.0622,123.8034
524.5443,123.5394
525.0264,123.5546
525.5085,123.7958
525.9907,123.8923
526.4728,123.627
526.9549,123.3656
527.437,123.7705
527.9191,125.0138
528.4012,125.814
528.8834,125.8084
529.3655,125.524
529.8476,125.1338
530.3297,124.7653
530.8118,124.7128
531.2939,125.1535
531.7761,125.8778
532.2582,126.3491
532.7403,126.4146
533.2224,126.4932
533.7045,126.7397
534.1866,126.87
534.6688,126.5101
535.1509,125.8591
535.633,125.5363
536.1151,126.0319
536.5972,127.0165
537.0793,127.5815
537.5615,127.6113
538.0436,127.6911
538.5257,128.1093
539.0078,128.5476
539.4899,128.6447
539.972,128.4184
540.4542,128.3557
540.9363,128.9823
541.4184,129.77
541.9005,129.8489
542.3826,129.228
542.8647,128.6716
543.3469,128.5912
543.829,128.814
544.3111,128.8845
544.7932,128.6764
545.2753,128.6285
545.7574,128.9678
546.2396,129.3725
546.7217,129.4839
547.2038,129.3611
547.6859,129.3838
548.168,129.8387
548.6501,130.6157
549.1323,131.2121
549.6144,131.4015
550.0965,131.8038
550.5786,132.9967
551.0607,134.0163
551.5428,133.7805
552.025,132.5055
552.5071,131.6984
552.9892,132.9513
553.4713,135.3193
553.9534,135.7085
554.4355,133.5983
554.9177,132.1615
555.3998,133.0779
555.8819,135.0395
556.364,136.2882
556.8461,136.7507
557.3282,136.9079
557.8104,136.6055
558.2925,136.2969
558.7746,136.7475
559.2567,137.8676
559.7388,138.6044
560.2209,138.2453
560.7031,137.1822
561.1852,136.6655
561.6673,136.9656
562.1494,137.4692
562.6315,138.4691
563.1136,139.4363
563.5958,139.9087
564.0779,139.9655
564.56,140.0307
565.0421,140.4296
565.5242,141.0157
566.0063,141.2607
566.4885,141.0166
566.9706,140.8567
567.4527,140.8819
567.9348,141.0681
568.4169,141.4532
568.899,142.0117
569.3812,142.5991
569.8633,143.0685
570.3454,143.5556
570.8275,144.4054
571.3096,145.5715
571.7917,146.3757
572.2739,146.4852
572.756,146.1653
573.2381,145.8014
573.7202,145.2615
574.2023,145.1833
574.6844,146.0495
575.1666,147.0303
575.6487,147.6008
576.1308,147.8034
576.6129,147.8096
577.095,147.6929
577.5771,147.6187
578.0593,148.023
578.5414,149.2123
579.0235,150.0408
579.5056,150.094
579.9877,150.1052
580.4698,150.4567
580.952,151.02
581.4341,151.4173
581.9162,151.3648
582.3983,151.3165
582.8804,152.179
583.3625,153.8096
583.8447,154.5491
584.3268,153.7937
584.8089,152.5427
585.291,151.6385
585.7731,151.0916
586.2552,151.0524
586.7374,151.9622
587.2195,152.9382
587.7016,153.5055
588.1837,153.8304
588.6658,154.2461
589.1479,154.8456
589.6301,155.4184
590.1122,155.6844
590.5943,155.5985
591.0764,155.6309
591.5585,155.9601
592.0406,156.198
592.5228,156.192
593.0049,156.074
593.487,156.0217
593.9691,156.0772
594.4512,156.0868
594.9333,155.8403
595.4155,155.4123
595.8976,155.0843
596.3797,154.8283
596.8618,154.9041
597.3439,155.8123
597.826,157.018
598.3082,157.1902
598.7903,155.8537
599.2724,154.6892
599.7545,154.3528
600.2366,154.3838
600.7188,154.3492
601.2009,154.1938
601.683,154.0085
602.1651,153.8613
602.6472,153.7132
603.1293,153.4113
603.6115,152.8578
604.0936,152.3251
604.5757,151.653
605.0578,151.1587
605.5399,151.1624
606.022,151.5329
606.5042,151.8379
606.9863,151.8355
607.4684,151.6405
607.9505,151.4044
608.4326,151.1286
608.9147,150.9383
609.3969,151.0234
609.879,150.9094
610.3611,149.7927
610.8432,147.788
611.3253,146.4839
611.8074,146.4803
612.2896,146.764
612.7717,147.0685
613.2538,147.2238
613.7359,146.9359
614.218,146.1303
614.7001,145.0195
615.1823,143.7485
615.6644,142.2746
616.1465,141.5618
616.6286,142.4713
617.1107,142.9592
617.5928,142.1384
618.075,140.8803
618.5571,140.1587
619.0392,140.1389
619.5213,140.0729
620.0034,139.2735
620.4855,138.0552
620.9677,137.0789
621.4498,136.3755
621.9319,135.9131
622.414,135.7512
622.8961,135.7439
623.3782,135.6217
623.8604,135.4835
624.3425,134.9509
624.8246,133.6614
625.3067,132.2509
625.7888,131.0071
626.2709,130.008
626.7531,129.3996
627.2352,129.2694
627.7173,129.2433
628.1994,128.5687
628.6815,127.0831
629.1636,125.8393
629.6458,125.0475
630.1279,124.3133
630.61,123.2238
631.0921,122.096
631.5742,121.598
632.0563,122.1313
632.5385,122.596
633.0206,122.1225
633.5027,121.0395
633.9848,119.8929
634.4669,118.7747
634.949,117.8735
635.4312,117.3703
635.9133,117.1641
636.3954,116.7659
636.8775,115.7579
637.3596,115.1311
637.8417,115.1634
638.3239,115.3882
638.806,115.6859
639.2881,115.887
639.7702,115.614
640.2523,114.5586
640.7344,113.1196
641.2166,112.1067
641.6987,111.5396
642.1808,110.7933
642.6629,109.478
643.145,108.3821
643.6271,108.5582
644.1093,109.6182
644.5914,110.1282
645.0735,109.4062
645.5556,108.6527
646.0377,108.6921
646.5198,108.9328
647.002,108.4011
647.4841,106.9905
647.9662,105.4534
648.4483,104.4564
648.9304,103.9314
649.4125,103.3246
649.8947,102.4035
650.3768,101.8567
650.8589,102.3155
651.341,102.7645
651.8231,102.3356
652.3052,101.163
652.7874,100.1612
653.2695,99.76994
653.7516,99.79183
654.2337,100.3497
654.7158,101.2092
655.1979,101.0764
655.6801,99.43218
656.1622,97.61147
656.6443,97.1838
657.1264,98.26154
657.6085,98.5983
658.0906,97.76469
658.5728,96.83987
659.0549,95.70195
659.537,94.82019
660.0191,94.94013
660.5012,95.97462
660.9833,96.80428
661.4655,96.37936
661.9476,95.12783
662.4297,94.4231
662.9118,94.33916
663.3939,94.23056
663.876,93.90442
664.3582,93.46828
664.8403,93.00481
665.3224,92.51963
665.8045,92.14362
666.2866,92.03737
666.7687,91.89937
667.2509,91.40937
667.733,90.82638
668.2151,90.66417
668.6972,91.0154
669.1793,91.4063
669.6614,91.32058
670.1436,90.7988
670.6257,90.45457
671.1078,90.42892
671.5899,90.28746
672.072,89.63424
672.5541,89.01012
673.0363,89.00797
673.5184,89.56917
674.0005,89.83208
674.4826,89.1927
674.9647,88.27721
675.4468,87.71842
675.929,87.40589
676.4111,86.90088
676.8932,86.05956
677.3753,85.35323
677.8574,85.40993
678.3395,86.27686
678.8217,86.69934
679.3038,86.37603
679.7859,85.97132
680.268,85.49576
680.7501,85.05674
681.2322,84.77388
681.7144,84.64139
682.1965,84.52337
682.6786,84.39968
683.1607,84.19169
683.6428,83.66551
684.1249,82.87387
684.6071,82.34251
685.0892,82.2918
685.5713,82.29752
686.0534,81.77262
686.5355,80.65267
687.0176,80.24686
687.4998,81.44534
687.9819,82.17488
688.464,81.49882
688.9461,80.3655
689.4282,79.66316
689.9103,79.54179
690.3925,79.74467
690.8746,80.19283
691.3567,80.71908
691.8388,80.86142
692.3209,80.60225
692.803,80.42984
693.2852,80.50764
693.7673,80.64444
694.2494,80.59129
694.7315,80.37605
695.2136,80.40749
695.6957,81.27109
696.1779,81.69371
696.66,80.96416
697.1421,79.72921
697.6242,78.51165
698.1063,77.51303
698.5884,76.99746
699.0706,77.26492
699.5527,77.98801
700.0348,78.15572
700.5169,77.64416
700.999,77.40395
701.4811,77.84033
701.9633,78.28589
702.4454,77.9686
702.9275,77.1638
703.4096,76.81699
703.8917,77.41177
704.3738,77.98849
704.856,78.30315
705.3381,78.29578
705.8202,77.59492
706.3023,76.39501
706.7844,75.68751
707.2665,76.21799
707.7487,77.47192
708.2308,77.97103
708.7129,77.49643
709.195,77.33306
709.6771,78.08018
710.1592,78.5638
710.6414,77.60542
711.1235,75.91686
711.6056,75.08627
712.0877,75.74566
712.5698,76.40466
713.0519,76.22473
713.5341,75.7227
714.0162,75.48927
714.4983,75.54642
714.9804,75.65379
715.4625,75.67599
715.9446,75.66088
716.4268,75.71643
716.9089,75.86449
717.391,75.98996
717.8731,76.11958
718.3552,76.18346
718.8373,76.20204
719.3195,76.11961
719.8016,75.78909
720.2837,75.12248
720.7658,74.60088
721.2479,74.50057
721.73,74.62735
722.2122,74.90086
722.6943,75.2218
723.1764,75.27935
723.6585,74.9336
724.1406,74.46738
724.6227,74.29219
725.1049,74.41288
725.587,74.82795
726.0691,76.02522
726.5512,76.7136
727.0333,76.06945
727.5154,74.95748
727.9976,74.18985
728.4797,73.8409
728.9618,73.62343
729.4439,73.32597
729.926,73.18967
730.4081,73.67053
730.8903,74.45887
731.3724,74.75266
731.8545,74.33952
732.3366,73.72783
732.8187,73.42191
733.3008,73.41609
733.783,73.68423
734.2651,74.52312
734.7472,74.99425
735.2293,74.59384
735.7114,73.99189
736.1935,73.63343
736.6757,73.48941
737.1578,73.34245
737.6399,73.18913
738.122,72.93194
738.6041,72.17386
739.0862,71.40362
739.5684,71.67835
740.0505,72.96656
740.5326,73.99331
741.0147,73.77946
741.4968,72.79229
741.9789,72.51657
742.4611,73.22573
742.9432,73.63004
743.4253,73.4244
743.9074,73.12285
744.3895,72.94803
744.8716,72.90079
745.3538,73.01994
745.8359,73.38828
746.318,73.67048
746.8001,73.77123
747.2822,73.67146
747.7643,73.13342
748.2465,72.36534
748.7286,72.00262
749.2107,72.33696
749.6928,73.01796
750.1749,73.69544
750.657,74.4121
751.1392,74.00536
751.6213,71.69188
752.1034,70.06837
752.5855,70.6983
753.0676,72.18379
753.5497,72.77523
754.0319,72.42172
754.514,72.22321
754.9961,72.809
755.4782,73.23946
755.9603,72.68372
756.4424,71.70681
756.9246,71.2458
757.4067,71.45197
757.8888,71.74007
758.3709,71.59626
758.853,71.15734
759.3351,70.83121
759.8173,70.59444
760.2994,70.71842
760.7815,71.45102
761.2636,72.21992
761.7457,72.54748
762.2278,72.491
762.71,72.36095
763.1921,71.86491
763.6742,71.75991
764.1563,72.76188
764.6384,73.78112
765.1205,73.83873
765.6027,73.13106
766.0848,72.34007
766.5669,71.7649
767.049,71.45963
767.5311,71.67875
768.0132,72.28043
768.4954,72.37228
768.9775,71.8254
769.4596,71.45466
769.9417,71.7424
770.4238,72.29053
770.9059,72.36181
771.3881,71.74581
771.8702,71.50253
772.3523,72.14321
772.8344,72.53557
773.3165,71.88383
773.7986,71.01816
774.2808,71.03078
774.7629,71.95695
775.245,72.7571
775.7271,72.65911
776.2092,72.11533
776.6913,71.72803
777.1735,71.47529
777.6556,71.28604
778.1377,71.14566
778.6198,71.00018
779.1019,70.78941
779.584,70.54484
780.0662,70.41058
780.5483,70.20753
781.0304,70.46456
781.5125,71.78004
781.9946,72.97974
782.4767,73.56457
782.9589,73.60803
783.441,73.17021
783.9231,72.1222
784.4052,71.33699
784.8873,71.68497
785.3694,72.35246
785.8516,72.22041
786.3337,71.47787
786.8158,70.96044
787.2979,71.0043
787.78,71.4491
788.2621,72.22001
788.7443,73.28293
789.2264,73.58806
789.7085,72.81276
790.1906,72.18193
790.6727,72.16943
791.1548,72.32452
791.637,72.1634
792.1191,71.73925
792.6012,71.43403
793.0833,71.30662
793.5654,71.30093
794.0475,71.39454
794.5297,71.60067
795.0118,72.10629
795.4939,72.75681
795.976,72.98727
796.4581,72.42949
796.9402,71.68565
797.4224,71.75619
797.9045,72.50255
798.3866,72.99291
798.8687,73.13533
799.3508,73.13377
799.8329,73.03768
800.3151,72.94565
800.7972,73.0845
801.2793,73.61379
801.7614,73.73766
802.2435,73.19079
802.7256,72.60519
803.2078,72.05682
803.6899,71.62971
804.172,71.3668
804.6541,71.2909
805.1362,71.47306
805.6183,72.14999
806.1005,72.8702
806.5826,73.08628
807.0647,73.00046
807.5468,73.09291
808.0289,73.42941
808.511,73.77612
808.9932,73.99671
809.4753,74.01791
809.9574,73.53402
810.4395,72.3126
810.9216,71.65421
811.4037,71.90704
811.8859,72.25564
812.368,72.21474
812.8501,72.06416
813.3322,72.27868
813.8143,72.95984
814.2964,73.39291
814.7786,73.31271
815.2607,73.04952
815.7428,72.62586
816.2249,72.22009
816.707,72.07417
817.1891,72.22025
817.6713,72.52109
818.1534,72.90023
818.6355,73.32584
819.1176,73.90039
819.5997,74.5388
820.0818,74.3867
820.564,73.1868
821.0461,72.17085
821.5282,72.27232
822.0103,73.12148
822.4924,73.59527
822.9745,73.54834
823.4567,73.45284
823.9388,73.15105
824.4209,72.98133
824.903,73.23978
825.3851,73.60841
825.8672,73.64938
826.3494,73.30611
826.8315,72.95279
827.3136,72.70153
827.7957,72.57162
828.2778,72.72679
828.7599,72.96801
829.2421,72.84364
829.7242,72.33414
830.2063,71.92889
830.6884,72.02481
831.1705,72.40885
831.6526,72.45414
832.1348,72.13337
832.6169,72.41726
833.099,73.70384
833.5811,74.62702
834.0632,74.13929
834.5453,72.94029
835.0275,72.61919
835.5096,73.62674
835.9917,74.17744
836.4738,73.97017
836.9559,73.6488
837.438,73.33691
837.9202,73.10512
838.4023,73.06551
838.8844,73.19608
839.3665,73.27592
839.8486,73.11546
840.3307,72.94254
840.8129,73.10117
841.295,73.38343
841.7771,73.29142
842.2592,72.81614
842.7413,72.41113
843.2234,72.36784
843.7056,72.54238
844.1877,72.64636
844.6698,72.66911
845.1519,72.77596
845.634,73.05809
846.1161,73.15324
846.5983,72.7355
847.0804,72.21617
847.5625,72.29516
848.0446,73.03477
848.5267,73.29057
849.0089,72.43252
849.491,71.83725
849.9731,72.06967
850.4552,72.58718
850.9373,73.00864
851.4194,73.25662
851.9016,73.23772
852.3837,72.78153
852.8658,72.52968
853.3479,73.52306
853.83,74.91148
854.3121,75.02967
854.7943,74.00685
855.2764,72.99209
855.7585,72.48122
856.2406,72.35617
856.7227,72.53463
857.2048,72.97853
857.687,73.19097
858.1691,73.13576
858.6512,72.95963
859.1333,72.58604
859.6154,72.28613
860.0975,72.43023
860.5797,72.88265
861.0618,72.87085
861.5439,71.88608
862.026,71.29793
862.5081,71.44273
862.9902,71.82725
863.4724,72.3507
863.9545,72.83851
864.4366,73.03323
864.9187,72.87861
865.4008,72.63818
865.8829,72.41537
866.3651,72.2555
866.8472,72.15572
867.3293,72.1693
867.8114,72.56693
868.2935,73.32514
868.7756,73.81181
869.2578,73.50088
869.7399,72.73351
870.222,72.3546
870.7041,72.38178
871.1862,72.48071
871.6683,72.68351
872.1505,72.72221
872.6326,72.38729
873.1147,71.88934
873.5968,71.57963
874.0789,71.49227
874.561,71.41364
875.0432,71.31409
875.5253,71.26207
876.0074,71.22842
876.4895,71.28399
876.9716,71.58049
877.4537,72.02869
877.9359,72.32127
878.418,72.36912
878.9001,72.21301
879.3822,71.60812
879.8643,71.00818
880.3464,70.95656
880.8286,71.36649
881.3107,72.01841
881.7928,72.78934
882.2749,73.2627
882.757,72.81204
883.2391,71.78856
883.7213,71.32978
884.2034,71.40532
884.6855,71.51647
885.1676,71.55153
885.6497,71.58239
886.1318,71.64878
886.614,71.77338
887.0961,72.0615
887.5782,72.68068
888.0603,73.02522
888.5424,72.91682
889.0245,72.77297
889.5067,72.84
889.9888,72.91221
890.4709,72.72314
890.953,72.26412
891.4351,71.81898
891.9172,71.06809
892.3994,70.80983
892.8815,71.87699
893.3636,73.20458
893.8457,73.83526
894.3278,73.75884
894.8099,73.24468
895.2921,72.34557
895.7742,71.56683
896.2563,71.55647
896.7384,71.89857
897.2205,71.84519
897.7026,71.47122
898.1848,71.18117
898.6669,71.10667
899.149,71.22964
899.6311,71.56922
900.1132,72.04345
900.5953,72.36355
901.0775,72.53453
901.5596,72.42491
902.0417,71.87853
902.5238,71.51928
903.0059,71.80916
903.488,72.43057
903.9702,72.73964
904.4523,72.67725
904.9344,72.53017
905.4165,72.16268
905.8986,71.88541
906.3807,71.93597
906.8629,71.96805
907.345,71.55363
907.8271,70.82838
908.3092,70.42948
908.7913,70.74296
909.2734,70.93333
909.7556,70.22563
910.2377,69.58226
910.7198,70.11079
911.2019,71.30724
911.684,72.08516
912.1661,72.12798
912.6483,71.89322
913.1304,71.73911
913.6125,71.55949
914.0946,71.02084
914.5767,70.31487
915.0588,70.16221
915.541,70.63134
916.0231,71.09695
916.5052,71.1687
916.9873,70.98311
917.4694,70.81587
917.9515,70.67344
918.4337,70.23887
918.9158,69.33601
919.3979,69.03036
919.88,69.98818
920.3621,71.05595
920.8442,70.85303
921.3264,69.56076
921.8085,69.13644
922.2906,70.68159
922.7727,71.28735
923.2548,69.87193
923.7369,68.57253
924.2191,68.61849
924.7012,69.31257
925.1833,69.57845
925.6654,69.27916
926.1475,68.94152
926.6296,68.45063
927.1118,68.2795
927.5939,69.03281
928.076,69.97344
928.5581,70.17371
929.0402,69.7821
929.5223,69.72414
930.0045,70.50694
930.4866,71.02676
930.9687,69.77426
931.4508,67.91987
931.9329,67.32397
932.415,67.76971
932.8972,68.44646
933.3793,69.06283
933.8614,69.33006
934.3435,68.9074
934.8256,68.15765
935.3077,68.03627
935.7899,68.49406
936.272,68.75835
936.7541,68.71624
937.2362,68.90647
937.7183,69.7019
938.2004,70.52695
938.6826,70.49282
939.1647,69.58062
939.6468,68.54279
940.1289,67.03167
940.611,66.28934
941.0931,67.15713
941.5753,68.05948
942.0574,67.52163
942.5395,66.25137
943.0216,66.32043
943.5037,68.50801
943.9858,69.65633
944.468,68.6539
944.9501,67.62161
945.4322,67.31036
945.9143,67.38369
946.3964,67.59586
946.8785,67.8471
947.3607,67.89082
947.8428,67.47873
948.3249,67.20814
948.807,67.76836
949.2891,68.30193
949.7712,67.77854
950.2534,66.65565
950.7355,65.94714
951.2176,65.90029
951.6997,65.99162
952.1818,65.75817
952.6639,65.5409
953.1461,65.93771
953.6282,66.67949
954.1103,67.2364
954.5924,67.49563
955.0745,67.22952
955.5566,66.31123
956.0388,65.36089
956.5209,65.3532
957.003,66.03703
957.4851,65.91328
957.9672,64.99164
958.4493,65.14188
958.9315,66.99924
959.4136,68.16048
959.8957,66.63167
960.3778,63.61304
960.8599,62.22976
961.342,62.80417
961.8242,63.43534
962.3063,64.20392
962.7884,64.84467
963.2705,65.40717
963.7526,65.61068
964.2347,64.91373
964.7169,63.52025
965.199,62.93223
965.6811,64.14928
966.1632,64.64116
966.6453,63.69024
967.1274,62.83291
967.6096,62.84119
968.0917,63.22906
968.5738,63.33719
969.0559,63.13885
969.538,63.13189
970.0201,63.73563
970.5023,64.15142
970.9844,63.80466
971.4665,63.42418
971.9486,63.88208
972.4307,64.68284
972.9128,64.62807
973.395,63.42812
973.8771,62.40485
974.3592,62.51949
974.8413,62.96174
975.3234,63.13602
975.8055,63.11266
976.2877,62.87661
976.7698,62.55227
977.2519,62.57507
977.734,63.16504
978.2161,63.68795
978.6982,63.14919
979.1804,62.23481
979.6625,62.55471
980.1446,63.66479
980.6267,63.82371
981.1088,62.76754
981.5909,61.78854
982.0731,61.78998
982.5552,62.27364
983.0373,62.28284
983.5194,61.91988
984.0015,62.01764
984.4836,62.59829
984.9658,62.99228
985.4479,62.98346
985.93,62.77821
986.4121,62.55001
986.8942,62.30256
987.3763,62.0355
987.8585,61.72813
988.3406,61.50067
988.8227,61.28179
989.3048,61.47731
989.7869,62.51803
990.269,63.55043
990.7512,63.46495
991.2333,62.37263
991.7154,61.6956
992.1975,61.77312
992.6796,61.52403
993.1617,60.43892
993.6439,59.62735
994.126,59.8225
994.6081,60.46973
995.0902,60.83298
995.5723,60.91103
996.0544,60.77301
996.5366,60.05692
997.0187,59.64753
997.5008,59.95222
997.9829,60.33282
998.465,60.40563
998.9471,60.28559
999.4293,60.1551
999.9114,60.03122
1000.393,60.05687
1000.876,60.55238
1001.358,60.84719
1001.84,60.59076
1002.322,60.0705
1002.804,59.16439
1003.286,58.29865
1003.768,58.58332
1004.25,60.41406
1004.733,61.62797
1005.215,60.22415
1005.697,58.67575
1006.179,59.04843
1006.661,60.24946
1007.143,60.97752
1007.625,61.09534
1008.107,60.87062
1008.589,60.38958
1009.072,59.90371
1009.554,59.59047
1010.036,59.41753
1010.518,59.42298
1011.0,59.51095
1011.482,59.5444
1011.964,59.46964
1012.446,59.12461
1012.929,58.36936
1013.411,57.78734
1013.893,58.28374
1014.375,59.35372
1014.857,60.08791
1015.339,60.46732
1015.821,60.56037
1016.303,60.38206
1016.785,59.82021
1017.268,58.72645
1017.75,57.66216
1018.232,57.74434
1018.714,58.64351
1019.196,58.94271
1019.678,58.66669
1020.16,58.42458
1020.642,58.38704
1021.125,58.60695
1021.607,59.16828
1022.089,59.86654
1022.571,60.30861
1023.053,60.48704
1023.535,60.07246
1024.017,59.02063
1024.499,58.18969
1024.981,57.84153
1025.464,57.86687
1025.946,58.24903
1026.428,58.78231
1026.91,58.70707
1027.392,57.90598
1027.874,57.73606
1028.356,58.44268
1028.838,58.71955
1029.321,57.91864
1029.803,57.13337
1030.285,57.52356
1030.767,58.76874
1031.249,59.41501
1031.731,59.31753
1032.213,59.1779
1032.695,59.0315
1033.177,58.7915
1033.66,58.3785
1034.142,57.92873
1034.624,57.52811
1035.106,57.21472
1035.588,57.26406
1036.07,57.89793
1036.552,58.37112
1037.034,58.71244
1037.516,58.81466
1037.999,58.55444
1038.481,58.11511
1038.963,57.55091
1039.445,56.9374
1039.927,56.87556
1040.409,57.93204
1040.891,58.53944
1041.373,58.42817
1041.855,58.20086
1042.338,58.1217
1042.82,57.99889
1043.302,57.42506
1043.784,56.53426
1044.266,56.35154
1044.748,57.53251
1045.23,58.36885
1045.712,58.60424
1046.195,58.68256
1046.677,58.76534
1047.159,58.7902
1047.641,58.67442
1048.123,58.4284
1048.605,58.12772
1049.087,57.56734
1049.569,57.33872
1050.052,57.74795
1050.534,58.24496
1051.016,58.67913
1051.498,59.00007
1051.98,59.15657
1052.462,59.15571
1052.944,59.04416
1053.426,58.68077
1053.908,58.51103
1054.391,59.14817
1054.873,59.41068
1055.355,58.08185
1055.837,56.48646
1056.319,56.29807
1056.801,57.35423
1057.283,58.1379
1057.765,58.24829
1058.248,58.17395
1058.73,58.04363
1059.212,57.78198
1059.694,56.996
1060.176,56.30074
1060.658,56.58204
1061.14,57.64983
1061.622,58.41041
1062.104,58.49014
1062.587,58.46881
1063.069,58.57251
1063.551,58.61158
1064.033,58.35109
1064.515,58.05273
1064.997,58.14612
1065.479,58.49635
1065.961,58.46633
1066.443,57.74712
1066.926,57.09547
1067.408,56.71125
1067.89,56.60737
1068.372,56.91146
1068.854,57.41276
1069.336,58.00923
1069.818,58.57835
1070.3,58.81865
1070.782,58.57027
1071.265,58.36091
1071.747,58.71013
1072.229,58.8353
1072.711,57.90929
1073.193,56.77969
1073.675,56.37258
1074.157,56.60902
1074.639,57.04778
1075.122,57.62928
1075.604,57.90707
1076.086,57.27985
1076.568,56.76204
1077.05,56.99466
1077.532,57.59928
1078.014,58.46425
1078.496,59.2886
1078.979,59.44307
1079.461,58.744
1079.943,57.86968
1080.425,56.53077
1080.907,55.83986
1081.389,57.09844
1081.871,58.71057
1082.353,59.23798
1082.835,58.86364
1083.318,58.09067
1083.8,57.05273
1084.282,56.51368
1084.764,57.16695
1085.246,57.93509
1085.728,58.47097
1086.21,58.7163
1086.692,58.56812
1087.175,58.12029
1087.657,57.43837
1088.139,56.57119
1088.621,55.90105
1089.103,55.53836
1089.585,55.4608
1090.067,55.78936
1090.549,56.27044
1091.031,56.73639
1091.514,57.20774
1091.996,57.95494
1092.478,58.87228
1092.96,58.98109
1093.442,57.3439
1093.924,55.99805
1094.406,55.75935
1094.888,55.9863
1095.37,56.51858
1095.853,57.09711
1096.335,57.5029
1096.817,57.68726
1097.299,57.513
1097.781,56.56637
1098.263,56.23745
1098.745,57.92265
1099.227,59.20835
1099.709,58.12049
1100.192,56.52747
1100.674,56.66616
1101.156,58.112
1101.638,58.86268
1102.12,58.35242
1102.602,57.86024
1103.084,57.72621
1103.566,57.627
1104.049,57.37586
1104.531,57.15679
1105.013,57.14899
1105.495,57.29377
1105.977,57.47466
1106.459,57.71527
1106.941,57.73045
1107.423,57.29079
1107.906,56.87357
1108.388,56.32176
1108.87,56.12166
1109.352,57.08018
1109.834,58.39594
1110.316,58.55157
1110.798,57.40203
1111.28,56.61901
1111.762,56.25629
1112.245,56.38178
1112.727,57.54917
1113.209,58.58151
1113.691,58.82296
1114.173,58.66536
1114.655,58.64104
1115.137,58.72062
1115.619,58.45013
1116.102,57.20014
1116.584,56.72473
1117.066,57.43406
1117.548,58.36052
1118.03,59.50023
1118.512,60.36704
1118.994,60.38836
1119.476,59.76969
1119.958,59.34311
1120.441,59.18859
1120.923,58.94981
1121.405,58.45735
1121.887,58.2871
1122.369,58.7831
1122.851,59.26919
1123.333,59.19659
1123.815,58.81722
1124.297,58.6678
1124.78,58.74876
1125.262,59.13181
1125.744,60.04376
1126.226,60.30421
1126.708,59.45019
1127.19,58.83094
1127.672,59.27473
1128.154,60.14367
1128.636,60.52626
1129.119,60.46817
1129.601,60.32164
1130.083,60.07071
1130.565,59.86158
1131.047,59.68787
1131.529,59.82136
1132.011,60.42646
1132.493,60.96996
1132.976,60.88568
1133.458,60.38085
1133.94,59.961
1134.422,59.64684
1134.904,59.83594
1135.386,60.51067
1135.868,60.93855
1136.35,60.9246
1136.833,60.82654
1137.315,60.89833
1137.797,61.02679
1138.279,61.03455
1138.761,60.9384
1139.243,60.8305
1139.725,60.6733
1140.207,60.12618
1140.689,59.26682
1141.172,58.9901
1141.654,59.71165
1142.136,60.62254
1142.618,60.93636
1143.1,60.80391
1143.582,60.27135
1144.064,59.5743
1144.546,59.15419
1145.029,59.0428
1145.511,59.17873
1145.993,59.53051
1146.475,60.05729
1146.957,60.81843
1147.439,61.51809
1147.921,61.97418
1148.403,62.11294
1148.885,61.61812
1149.368,60.8462
1149.85,60.376
1150.332,60.27527
1150.814,60.33326
1151.296,60.48665
1151.778,60.65989
1152.26,60.93968
1152.742,61.0705
1153.224,60.83606
1153.707,60.3975
1154.189,59.73534
1154.671,59.07351
1155.153,58.86453
1155.635,59.20141
1156.117,59.69763
1156.599,60.45381
1157.081,61.03487
1157.563,61.19392
1158.046,61.25972
1158.528,61.55983
1159.01,61.80809
1159.492,61.47473
1159.974,60.64642
1160.456,60.21425
1160.938,60.47849
1161.42,60.69407
1161.903,60.59836
1162.385,60.7954
1162.867,61.83834
1163.349,62.75844
1163.831,62.51519
1164.313,61.76918
1164.795,62.2644
1165.277,64.26524
1165.76,65.29504
1166.242,65.2281
1166.724,64.45406
1167.206,62.68251
1167.688,61.35076
1168.17,61.23345
1168.652,61.88467
1169.134,62.93708
1169.616,64.08242
1170.099,63.53893
1170.581,61.27389
1171.063,60.09721
1171.545,60.18359
1172.027,60.54789
1172.509,60.89513
1172.991,61.20014
1173.473,61.45915
1173.956,61.58157
1174.438,61.22148
1174.92,60.64569
1175.402,60.9977
1175.884,61.90121
1176.366,61.84021
1176.848,60.78608
1177.33,59.81404
1177.813,59.39638
1178.295,59.41057
1178.777,59.87048
1179.259,60.5183
1179.741,61.24739
1180.223,61.80418
1180.705,61.74672
1181.187,61.2409
1181.669,60.62938
1182.151,60.00817
1182.634,59.27305
1183.116,58.14146
1183.598,57.80087
1184.08,59.93046
1184.562,61.94863
1185.044,61.80037
1185.526,60.92952
1186.008,60.96231
1186.49,61.54829
1186.973,61.46679
1187.455,60.47712
1187.937,59.63618
1188.419,59.03178
1188.901,58.76625
1189.383,59.06161
1189.865,59.46072
1190.347,59.998
1190.83,60.30664
1191.312,59.7491
1191.794,58.6047
1192.276,58.30986
1192.758,59.26411
1193.24,59.72827
1193.722,59.69537
1194.204,59.05492
1194.687,57.44651
1195.169,56.34547
1195.651,56.7853
1196.133,57.99929
1196.615,58.86931
1197.097,59.3629
1197.579,59.24051
1198.061,58.52106
1198.543,57.31766
1199.026,55.74036
1199.508,55.42915
1199.99,56.86871
1200.472,58.2758
1200.954,58.19651
1201.436,57.48366
1201.918,57.29142
1202.4,57.47688
1202.883,58.13945
1203.365,58.80204
1203.847,58.0381
1204.329,56.18534
1204.811,55.10553
1205.293,55.46846
1205.775,56.08982
1206.257,56.2606
1206.74,56.26159
1207.222,56.23091
1207.704,56.18587
1208.186,56.04877
1208.668,55.96445
1209.15,56.16795
1209.632,56.63498
1210.114,57.18386
1210.596,57.96235
1211.078,58.19008
1211.561,57.26127
1212.043,56.38713
1212.525,56.0076
1213.007,55.70902
1213.489,55.07024
1213.971,54.45807
1214.453,54.53251
1214.935,55.23986
1215.417,55.59171
1215.9,55.51703
1216.382,55.32292
1216.864,54.97349
1217.346,54.7691
1217.828,54.84889
1218.31,54.78096
1218.792,54.13557
1219.274,53.54826
1219.757,54.58234
1220.239,56.63271
1220.721,56.4757
1221.203,54.60561
1221.685,53.37772
1222.167,53.05041
1222.649,53.20137
1223.131,53.62864
1223.614,53.99805
1224.096,54.06944
1224.578,53.93595
1225.06,53.44464
1225.542,53.03354
1226.024,53.5746
1226.506,54.35136
1226.988,53.9734
1227.47,52.79598
1227.953,52.38869
1228.435,53.2178
1228.917,53.84922
1229.399,53.52682
1229.881,53.21436
1230.363,53.15034
1230.845,53.27308
1231.327,53.95913
1231.81,54.50647
1232.292,53.8266
1232.774,52.29174
1233.256,51.36823
1233.738,51.09094
1234.22,51.37944
1234.702,52.61267
1235.184,53.06322
1235.667,52.1484
1236.149,51.57441
1236.631,52.36228
1237.113,53.19178
1237.595,52.32423
1238.077,50.55139
1238.559,50.40223
1239.041,51.51037
1239.523,52.07661
1240.005,52.06781
1240.488,51.62392
1240.97,50.90985
1241.452,50.6067
1241.934,51.05299
1242.416,51.62794
1242.898,51.86814
1243.38,51.8368
1243.862,51.39169
1244.344,50.88735
1244.827,50.8378
1245.309,50.96334
1245.791,50.65774
1246.273,49.9706
1246.755,49.54411
1247.237,49.51387
1247.719,49.84479
1248.201,50.99314
1248.684,51.84932
1249.166,52.12319
1249.648,51.93852
1250.13,50.92464
1250.612,49.95289
1251.094,50.38434
1251.576,51.90006
1252.058,52.35781
1252.541,51.58039
1253.023,50.98459
1253.505,50.59624
1253.987,50.65481
1254.469,51.23223
1254.951,51.25343
1255.433,50.04197
1255.915,49.08747
1256.397,50.69204
1256.88,53.09093
1257.362,52.33164
1257.844,50.05319
1258.326,49.46442
1258.808,50.19864
1259.29,51.01185
1259.772,51.49701
1260.254,51.29495
1260.737,50.15571
1261.219,49.16805
1261.701,49.10952
1262.183,49.07097
1262.665,48.27501
1263.147,47.69368
1263.629,48.26973
1264.111,49.35156
1264.594,50.16209
1265.076,50.62437
1265.558,50.44889
1266.04,49.30589
1266.522,48.72223
1267.004,48.77116
1267.486,49.24419
1267.968,50.30214
1268.45,50.68994
1268.932,49.66039
1269.415,48.39087
1269.897,48.16686
1270.379,48.7481
1270.861,50.12103
1271.343,51.63391
1271.825,50.69403
1272.307,48.23982
1272.789,47.44883
1273.271,48.42912
1273.754,49.13128
1274.236,48.78783
1274.718,48.29944
1275.2,48.14248
1275.682,48.17848
1276.164,48.37442
1276.646,48.68037
1277.128,49.35749
1277.611,49.89259
1278.093,49.47149
1278.575,48.43343
1279.057,47.97249
1279.539,48.18281
1280.021,48.52745
1280.503,49.21319
1280.985,49.38752
1281.468,48.88641
1281.95,48.17293
1282.432,47.35442
1282.914,46.71623
1283.396,46.50275
1283.878,46.58045
1284.36,46.68193
1284.842,46.85592
1285.324,47.2431
