Wavenumber (cm⁻¹),Intensity
200.0,7415.619278158058
201.00097751710655,7326.0298779958885
202.0019550342131,7192.423758330033
203.00293255131965,7102.567200575926
204.0039100684262,7038.047267055809
205.00488758553274,6937.2180000989465
206.0058651026393,6780.112157604104
207.00684261974584,6715.788097903377
208.0078201368524,6636.838845215713
209.00879765395894,6590.099567287789
210.00977517106548,6564.938264459639
211.01075268817203,6393.541222394671
212.01173020527858,6279.652436179448
213.01270772238513,6162.874788545068
214.01368523949168,6057.482185282376
215.01466275659823,6056.055651488083
216.01564027370478,6033.22082166933
217.01661779081132,6025.791074588752
218.01759530791787,6022.095098312551
219.01857282502445,5995.23108200742
220.019550342131,5955.818744245555
221.02052785923755,5906.79779532057
222.0215053763441,5823.7853956503
223.02248289345064,5707.250516829778
224.0234604105572,5589.855524131046
225.02443792766374,5475.597276298322
226.0254154447703,5410.925593421824
227.02639296187684,5378.401748492208
228.02737047898339,5336.054301430232
229.02834799608993,5362.256174523808
230.02932551319648,5393.410470617004
231.03030303030303,5382.6118115064755
232.03128054740958,5352.784408096461
233.03225806451613,5349.267469217335
234.03323558162268,5326.12982863969
235.03421309872923,5352.566673115725
236.03519061583577,5335.684116310545
237.03616813294232,5386.345508163515
238.03714565004887,5376.178868343795
239.03812316715542,5449.8064042589795
240.03910068426197,5589.019796307492
241.04007820136852,5724.875847730776
242.04105571847506,5815.384530176809
243.0420332355816,6013.62584116928
244.0430107526882,6170.444393011758
245.04398826979474,6232.439335552366
246.0449657869013,6347.714215735311
247.04594330400784,6532.819925590896
248.04692082111438,6724.248203492665
249.04789833822093,6898.089060602009
250.04887585532748,7069.969291889733
251.04985337243403,7286.314420904147
252.05083088954058,7509.2731500108575
253.05180840664713,7718.895561755625
254.05278592375367,7910.640831966819
255.05376344086022,8097.189377102261
256.05474095796677,8344.355543069249
257.0557184750733,8655.569168985148
258.05669599217987,8965.311217266915
259.0576735092864,9211.933498617262
260.05865102639297,9496.898777142522
261.0596285434995,9732.85484099826
262.06060606060606,9869.58819078778
263.0615835777126,9905.491345485689
264.06256109481916,9877.067403897216
265.0635386119257,9746.248044804996
266.06451612903226,9541.342051809623
267.0654936461388,9285.899617843928
268.06647116324535,8982.268729528858
269.0674486803519,8590.540896229286
270.06842619745845,8253.12894760947
271.069403714565,7972.0492400324665
272.07038123167155,7719.223990514369
273.0713587487781,7500.348719363987
274.07233626588464,7368.994818029547
275.0733137829912,7240.415816724367
276.07429130009774,7117.891515214778
277.0752688172043,7042.754303209749
278.07624633431084,6954.1885998354
279.0772238514174,6914.114620601503
280.07820136852393,6876.567160215481
281.0791788856305,6845.688544956461
282.08015640273703,6914.501706897751
283.0811339198436,6929.303083674329
284.08211143695013,6880.851300307365
285.0830889540567,6830.90137239894
286.0840664711632,6840.037666848544
287.0850439882698,6875.2337654889425
288.0860215053764,6857.930820663628
289.0869990224829,6797.839520000369
290.0879765395895,6705.477362350709
291.088954056696,6573.944649145162
292.0899315738026,6454.781132717665
293.0909090909091,6382.8767776394925
294.09188660801567,6310.803986338075
295.0928641251222,6190.308961104509
296.09384164222877,6046.805530469393
297.0948191593353,5958.133311385122
298.09579667644186,5904.4676752939995
299.0967741935484,5872.461168737579
300.09775171065496,5864.870126147761
301.0987292277615,5836.421082743446
302.09970674486806,5818.82977402931
303.1006842619746,5839.08337831514
304.10166177908116,5870.357782083436
305.1026392961877,5829.083125218482
306.10361681329425,5846.719426431246
307.1045943304008,5926.903949658988
308.10557184750735,5977.162606146559
309.1065493646139,5935.1166398623
310.10752688172045,5955.378361041411
311.108504398827,6004.677379841418
312.10948191593354,6083.791494626292
313.1104594330401,6162.943712241957
314.11143695014664,6207.836259875619
315.1124144672532,6406.21914623725
316.11339198435974,6543.06055605354
317.1143695014663,6578.916462045901
318.11534701857283,6573.183972685889
319.1163245356794,6605.952909668174
320.11730205278593,6535.917791599676
321.1182795698925,6409.394734251803
322.119257086999,6297.405022468902
323.1202346041056,6244.558312913749
324.1212121212121,6182.683231638097
325.1221896383187,6080.193200567611
326.1231671554252,5977.758494624874
327.12414467253177,5928.914452080271
328.1251221896383,5969.4876963843235
329.12609970674487,5949.5782082890055
330.1270772238514,5917.8699340116145
331.12805474095796,5911.461535099594
332.1290322580645,5886.545073007206
333.13000977517106,5933.794394962533
334.1309872922776,5840.039368566925
335.13196480938416,5819.019058087144
336.1329423264907,5802.438382524485
337.13391984359725,5779.904556065329
338.1348973607038,5761.929610520566
339.13587487781035,5735.868779797088
340.1368523949169,5713.20408586541
341.13782991202345,5646.059798875398
342.13880742913,5636.310320897515
343.13978494623655,5698.534727378545
344.1407624633431,5714.065192637363
345.14173998044964,5703.349181194282
346.1427174975562,5714.645171597542
347.14369501466274,5716.800067543572
348.1446725317693,5733.268417419269
349.14565004887584,5745.335282345303
350.1466275659824,5776.130585627638
351.14760508308893,5834.411935865469
352.1485826001955,5820.891695695337
353.14956011730203,5813.651733875073
354.1505376344086,5856.260396089686
355.1515151515151,5921.494816761263
356.1524926686217,5953.899561203702
357.1534701857282,5939.6746828689975
358.1544477028348,5977.005169192357
359.1554252199413,6018.3432460873455
360.15640273704787,6040.798890893801
361.1573802541544,6095.193009057541
362.15835777126097,6094.276761915885
363.1593352883675,6042.172097017509
364.16031280547406,6017.363702213461
365.1612903225806,6069.268580932877
366.16226783968716,6148.282346329988
367.1632453567937,6136.512069280868
368.16422287390026,6203.519969153763
369.1652003910068,6320.72840035195
370.16617790811335,6384.993998160108
371.1671554252199,6499.241322367132
372.16813294232645,6590.190601027029
373.169110459433,6621.467064951866
374.17008797653955,6651.342672830434
375.1710654936461,6753.688043479335
376.1720430107527,6714.313288493664
377.17302052785925,6839.665519842021
378.1739980449658,6993.230655111447
379.17497556207235,7031.956656638651
380.1759530791789,7028.861496743537
381.17693059628544,7123.947338200443
382.177908113392,7206.260917902959
383.17888563049854,7316.167679667581
384.1798631476051,7501.503877389636
385.18084066471164,7705.033497202589
386.1818181818182,7872.068011917556
387.18279569892474,8037.423713078754
388.1837732160313,8174.806523730186
389.18475073313783,8208.584784839786
390.1857282502444,8080.916593489547
391.18670576735093,7890.507395773175
392.1876832844575,7727.564397093362
393.188660801564,7580.312649607666
394.1896383186706,7435.1928948655095
395.1906158357771,7384.87177954404
396.1915933528837,7356.721182838279
397.1925708699902,7342.635556112543
398.19354838709677,7348.238184736135
399.1945259042033,7377.565601609274
400.19550342130987,7405.799378510601
401.1964809384164,7413.2081794391715
402.19745845552296,7422.409742208345
403.1984359726295,7437.027457280515
404.19941348973606,7446.845570914395
405.2003910068426,7478.4050552769495
406.20136852394916,7461.1631735235815
407.2023460410557,7450.411677707682
408.20332355816225,7442.027324407966
409.20430107526886,7379.603914716749
410.2052785923754,7388.997651120677
411.20625610948196,7361.1084813688785
412.2072336265885,7344.023905789737
413.20821114369505,7345.2709852344415
414.2091886608016,7295.536674835754
415.21016617790815,7225.8990955667405
416.2111436950147,7168.672951573666
417.21212121212125,7098.665374315651
418.2130987292278,7037.482661126794
419.21407624633434,7030.730527549617
420.2150537634409,6891.577138011788
421.21603128054744,6822.230974687356
422.217008797654,6753.47683442612
423.21798631476054,6647.135571108641
424.2189638318671,6619.129692500409
425.21994134897363,6553.921507505312
426.2209188660802,6544.163921850933
427.22189638318673,6519.687226912721
428.2228739002933,6446.099635898904
429.2238514173998,6439.469306693864
430.2248289345064,6508.786175784382
431.2258064516129,6483.412385932511
432.2267839687195,6406.648783089722
433.227761485826,6367.806511694417
434.22873900293257,6357.269264442405
435.2297165200391,6382.174175327891
436.23069403714567,6376.897000549079
437.2316715542522,6334.32098178363
438.23264907135876,6300.685400006042
439.2336265884653,6339.834630391272
440.23460410557186,6384.838771431927
441.2355816226784,6399.53491021989
442.23655913978496,6411.291750725432
443.2375366568915,6417.989449862862
444.23851417399806,6372.786841945764
445.2394916911046,6418.714126746113
446.24046920821115,6410.194987905431
447.2414467253177,6375.279843836117
448.24242424242425,6378.053265297656
449.2434017595308,6429.44722258314
450.24437927663735,6468.49853472335
451.2453567937439,6444.200167429762
452.24633431085044,6440.221594801928
453.247311827957,6514.89906879178
454.24828934506354,6601.742292932335
455.2492668621701,6603.871100230979
456.25024437927664,6598.823515194298
457.2512218963832,6646.1302782144285
458.25219941348973,6678.076758059043
459.2531769305963,6610.667326137097
460.25415444770283,6730.761847954824
461.2551319648094,6831.570832493057
462.2561094819159,6934.912871674773
463.2570869990225,7046.639694769928
464.258064516129,7081.007697051207
465.2590420332356,7127.180888695656
466.2600195503421,7201.666266004484
467.26099706744867,7302.32471483934
468.2619745845552,7409.290338359202
469.26295210166177,7503.8397982452125
470.2639296187683,7641.776445231363
471.26490713587486,7702.497281310201
472.2658846529814,7797.5672619725565
473.26686217008796,7942.823324757703
474.2678396871945,8045.836930736193
475.26881720430106,8160.880097891617
476.2697947214076,8303.63287374582
477.27077223851416,8462.175079414286
478.2717497556207,8603.630609443691
479.27272727272725,8685.198749726631
480.2737047898338,8682.048472219436
481.27468230694035,8618.612423064378
482.2756598240469,8554.887715506035
483.27663734115345,8422.95238650147
484.27761485826,8182.291360998433
485.27859237536654,7997.75874718574
486.2795698924731,7879.572073087503
487.28054740957964,7805.92330352545
488.2815249266862,7755.880473427631
489.2825024437928,7732.031978218868
490.28347996089934,7774.271661049544
491.2844574780059,7793.61184833582
492.28543499511244,7843.225177319093
493.286412512219,7986.094652976975
494.28739002932554,8176.936501687693
495.2883675464321,8297.451739909888
496.28934506353863,8530.23454317551
497.2903225806452,8761.472466855359
498.29130009775173,9000.041598221207
499.2922776148583,9261.875782642044
500.2932551319648,9515.231517092563
501.2942326490714,9814.659249184744
502.2952101661779,10277.003056433672
503.2961876832845,10577.00005284189
504.297165200391,10750.329552728648
505.29814271749757,11062.117523889574
506.2991202346041,11349.451864186565
507.30009775171067,11649.170903056707
508.3010752688172,11800.827432045731
509.30205278592376,11809.381731902398
510.3030303030303,11797.199958011981
511.30400782013686,11763.780195848116
512.3049853372434,11565.086721528074
513.3059628543499,11308.808980069081
514.3069403714564,11131.556649060414
515.307917888563,11037.541046174454
516.3088954056695,10882.762207363803
517.3098729227761,10736.4528838174
518.3108504398826,10574.86812001015
519.3118279569892,10508.618973353583
520.3128054740957,10476.934940577481
521.3137829912023,10243.276503007084
522.3147605083088,10087.846062923642
523.3157380254154,9760.979546075228
524.3167155425219,9416.018859687081
525.3176930596285,9112.832607137703
526.318670576735,8785.861626459116
527.3196480938416,8555.904971035821
528.3206256109481,8208.63717984816
529.3216031280547,7978.159265131197
530.3225806451612,7814.283484091787
531.3235581622678,7603.219822212946
532.3245356793743,7455.975282029001
533.3255131964809,7395.280877108403
534.3264907135874,7244.557351951591
535.327468230694,7149.599064426101
536.3284457478005,7174.693592329744
537.3294232649071,7161.261030337907
538.3304007820136,7120.255522173178
539.3313782991202,7083.436337658255
540.3323558162267,7045.924854741691
541.3333333333333,7034.699835821924
542.3343108504398,7054.330256308397
543.3352883675464,6972.589988161727
544.3362658846529,6919.674201791809
545.3372434017595,6829.396848490941
546.338220918866,6734.209447772793
547.3391984359725,6689.462818367715
548.3401759530791,6670.91580666269
549.3411534701856,6677.078279066434
550.3421309872922,6616.110167420187
551.3431085043987,6541.587347931617
552.3440860215054,6513.649527613286
553.345063538612,6518.2804043750275
554.3460410557185,6470.422588256655
555.347018572825,6427.635078900291
556.3479960899316,6409.465905209632
557.3489736070381,6393.798280769433
558.3499511241447,6387.818439008389
559.3509286412512,6462.760860809553
560.3519061583578,6442.6498526400555
561.3528836754643,6513.4906390804545
562.3538611925709,6516.142762871504
563.3548387096774,6429.724976815143
564.355816226784,6484.484027336009
565.3567937438905,6484.694805891178
566.3577712609971,6458.294273364758
567.3587487781036,6474.450606508304
568.3597262952102,6507.076168094418
569.3607038123167,6493.668767151411
570.3616813294233,6451.556887087652
571.3626588465298,6444.257111018449
572.3636363636364,6468.848500084857
573.3646138807429,6494.996003259742
574.3655913978495,6487.067714216252
575.366568914956,6437.533386944701
576.3675464320626,6459.395607746426
577.3685239491691,6449.5331344604065
578.3695014662757,6396.918054922224
579.3704789833822,6362.01124591914
580.3714565004888,6392.384633371268
581.3724340175953,6431.356136474043
582.3734115347019,6367.679109790926
583.3743890518084,6374.483991027766
584.375366568915,6398.532478555757
585.3763440860215,6380.162924789172
586.377321603128,6373.807826809354
587.3782991202346,6361.448376777186
588.3792766373411,6359.278960110571
589.3802541544477,6402.811177937515
590.3812316715542,6431.802998346676
591.3822091886608,6402.569279387203
592.3831867057673,6417.287304727424
593.3841642228739,6487.583961901775
594.3851417399804,6514.451077470815
595.386119257087,6551.985128252234
596.3870967741935,6610.09674494588
597.3880742913001,6623.148511528559
598.3890518084066,6611.611496454194
599.3900293255132,6671.303840949536
600.3910068426197,6639.968602505983
601.3919843597263,6642.593301923623
602.3929618768328,6757.696271076724
603.3939393939394,6762.8756931794605
604.3949169110459,6782.408042002009
605.3958944281525,6842.333986923328
606.396871945259,6882.459523761817
607.3978494623656,6882.53732023428
608.3988269794721,6875.06572945587
609.3998044965787,6890.474041895763
610.4007820136852,6884.5815314047395
611.4017595307918,6874.597166194941
612.4027370478983,6844.632942821638
613.4037145650049,6790.889517665362
614.4046920821114,6755.077214457642
615.405669599218,6771.680330399768
616.4066471163245,6736.291611820478
617.4076246334312,6771.765709394574
618.4086021505377,6829.053472484984
619.4095796676443,6817.09294102516
620.4105571847508,6789.19649993339
621.4115347018574,6776.261942183951
622.4125122189639,6821.694605426574
623.4134897360705,6881.483921158108
624.414467253177,6914.399077007707
625.4154447702836,6904.341334818767
626.4164222873901,6860.515296877478
627.4173998044967,6827.10950671356
628.4183773216032,6850.823937195189
629.4193548387098,6876.341052920356
630.4203323558163,6894.466743585972
631.4213098729228,6937.070370042844
632.4222873900294,6928.942534773634
633.423264907136,6804.800408007445
634.4242424242425,6875.770211448658
635.425219941349,6928.841738652625
636.4261974584556,6829.430027184747
637.4271749755621,6820.996083861277
638.4281524926687,6855.308329788568
639.4291300097752,6819.247142159086
640.4301075268818,6763.104896871437
641.4310850439883,6741.756357616789
642.4320625610949,6748.539153669299
643.4330400782014,6742.996887075382
644.434017595308,6717.0383794132695
645.4349951124145,6698.8561486476865
646.4359726295211,6697.354900513657
647.4369501466276,6702.572250564338
648.4379276637342,6683.730921535847
649.4389051808407,6605.341685694287
650.4398826979473,6620.7738968892845
651.4408602150538,6657.955791532567
652.4418377321604,6661.9369909109755
653.4428152492669,6672.207925630841
654.4437927663735,6697.9465106729
655.44477028348,6598.016557050718
656.4457478005866,6639.554113011807
657.4467253176931,6653.881845866375
658.4477028347997,6629.482010474701
659.4486803519062,6622.125874270132
660.4496578690128,6647.908721678516
661.4506353861193,6656.049531594764
662.4516129032259,6663.460481549137
663.4525904203324,6648.7006337263065
664.453567937439,6655.329997446943
665.4545454545455,6682.3760999038295
666.455522971652,6689.918483329798
667.4565004887586,6760.317541555225
668.4574780058651,6767.369134919258
669.4584555229717,6730.951991597729
670.4594330400782,6746.516545150059
671.4604105571848,6817.9280481842325
672.4613880742913,6862.864986329768
673.4623655913979,6902.3938528592425
674.4633431085044,6897.108892486501
675.464320625611,6957.516506308037
676.4652981427175,7037.796308979553
677.4662756598241,7086.124951315148
678.4672531769306,7150.231438896463
679.4682306940372,7262.313009449134
680.4692082111437,7377.051962462617
681.4701857282503,7417.09844326153
682.4711632453568,7450.094940273525
683.4721407624634,7572.03030349626
684.4731182795699,7769.708381884373
685.4740957966765,7853.375022233095
686.475073313783,7857.351468663797
687.4760508308896,7955.110609513347
688.4770283479961,8129.703101570735
689.4780058651027,8271.26412868858
690.4789833822092,8308.715923168413
691.4799608993158,8327.828833919011
692.4809384164223,8366.094485120997
693.4819159335289,8451.571484874641
694.4828934506354,8546.42882780269
695.483870967742,8646.716212012154
696.4848484848485,8776.274000911417
697.485826001955,8844.15400545451
698.4868035190616,8919.817230328737
699.4877810361681,8917.784437837232
700.4887585532747,8935.893805062287
701.4897360703812,9005.733083824984
702.4907135874878,9021.229997860855
703.4916911045943,8948.682104703214
704.4926686217009,8840.359386032269
705.4936461388074,8738.09116606943
706.494623655914,8635.779796316741
707.4956011730205,8490.624555890921
708.4965786901271,8298.986870429204
709.4975562072336,8154.244065757237
710.4985337243402,8002.002562821746
711.4995112414467,7849.764212376491
712.5004887585533,7693.151662157359
713.5014662756598,7562.548344270333
714.5024437927664,7489.783977596388
715.5034213098729,7422.0804691102985
716.5043988269795,7336.063849369906
717.505376344086,7248.158212843453
718.5063538611926,7148.728842380943
719.5073313782991,7068.615417183255
720.5083088954057,7037.09062800111
721.5092864125122,7018.773998511223
722.5102639296188,6977.198829619438
723.5112414467253,6915.9929687308095
724.5122189638319,6934.880282249854
725.5131964809384,6939.440129543829
726.514173998045,6870.487564088402
727.5151515151515,6884.174381877267
728.516129032258,6866.527905052492
729.5171065493646,6915.003390138614
730.5180840664711,6892.515288638845
731.5190615835777,6874.526234973941
732.5200391006842,6906.961822349598
733.5210166177908,6890.785026325442
734.5219941348973,6908.132081793302
735.5229716520039,6929.426186188113
736.5239491691104,6972.677911859423
737.524926686217,7023.67318371421
738.5259042033235,7045.032730593489
739.5268817204301,7040.6005959902095
740.5278592375366,7121.0748010974685
741.5288367546432,7171.633679084092
742.5298142717497,7193.48603343368
743.5307917888563,7232.2154840850835
744.5317693059628,7269.504512579198
745.5327468230694,7281.198009539358
746.5337243401759,7314.788421719858
747.5347018572825,7376.181771147875
748.535679374389,7394.078630354572
749.5366568914956,7418.205955595051
750.5376344086021,7472.34035529807
751.5386119257087,7521.917672743452
