Raman shift,Intensity
754.4196,443.88709
756.5672,443.88709
758.71479,445.2076
760.86239,443.88709
763.00999,443.88709
765.15758,442.56658
767.30518,442.56658
769.45278,442.56658
771.60037,441.24607
773.74797,441.24607
775.89557,441.24607
778.04316,439.92556
780.19076,439.92556
782.33836,439.92556
784.48595,439.92556
786.63355,439.92556
788.78115,439.92556
790.92874,439.92556
793.07634,439.92556
795.22394,439.92556
797.37153,439.92556
799.51913,439.92556
801.66673,439.92556
803.81433,439.92556
805.96192,441.24607
808.10952,441.24607
810.25712,441.24607
812.40471,441.24607
814.55231,441.24607
816.69991,442.56658
818.8475,442.56658
820.9951,442.56658
823.1427,442.56658
825.29029,443.88709
827.43789,443.88709
829.58549,443.88709
831.73308,443.88709
833.88068,443.88709
836.02828,445.2076
838.17587,445.2076
840.32347,445.2076
842.47107,445.2076
844.61866,445.2076
846.76626,445.2076
848.91386,445.2076
851.06145,445.2076
853.20905,445.2076
855.35665,443.88709
857.50424,443.88709
859.65184,443.88709
861.79944,443.88709
863.94703,443.88709
866.09463,442.56658
868.24223,442.56658
870.38982,442.56658
872.53742,442.56658
874.68502,442.56658
876.83261,442.56658
878.98021,442.56658
881.12781,442.56658
883.2754,442.56658
885.423,442.56658
887.5706,443.88709
889.71819,443.88709
891.86579,445.2076
894.01339,446.52811
896.16098,447.84862
898.30858,449.16913
900.45618,450.48964
902.60377,453.13066
904.75137,454.45116
906.89897,455.77167
909.04656,458.41269
911.19416,459.7332
913.34176,461.05371
915.48935,462.37422
917.63695,465.01524
919.78455,465.01524
921.93214,466.33575
924.07974,467.65626
926.22734,467.65626
928.37493,467.65626
930.52253,467.65626
932.67013,467.65626
934.81772,466.33575
936.96532,465.01524
939.11292,465.01524
941.26051,463.69473
943.40811,462.37422
945.55571,461.05371
947.7033,459.7332
949.8509,458.41269
951.9985,457.09218
954.14609,455.77167
956.29369,454.45116
958.44129,453.13066
960.58888,451.81015
962.73648,451.81015
964.88408,450.48964
967.03167,450.48964
969.17927,449.16913
971.32687,449.16913
973.47446,449.16913
975.62206,447.84862
977.76966,447.84862
979.91725,447.84862
982.06485,447.84862
984.21245,449.16913
986.36004,449.16913
988.50764,449.16913
990.65524,449.16913
992.80283,449.16913
994.95043,450.48964
997.09803,450.48964
999.24562,450.48964
1001.39322,450.48964
1003.54082,450.48964
1005.68841,451.81015
1007.83601,451.81015
1009.98361,451.81015
1012.1312,451.81015
1014.2788,451.81015
1016.4264,451.81015
1018.57399,451.81015
1020.72159,451.81015
1022.86919,451.81015
1025.01678,451.81015
1027.16438,451.81015
1029.31198,450.48964
1031.45957,450.48964
1033.60717,450.48964
1035.75477,449.16913
1037.90236,449.16913
1040.04996,449.16913
1042.19756,447.84862
1044.34515,447.84862
1046.49275,447.84862
1048.64035,447.84862
1050.78794,446.52811
1052.93554,446.52811
1055.08314,445.2076
1057.23073,445.2076
1059.37833,445.2076
1061.52593,445.2076
1063.67352,445.2076
1065.82112,445.2076
1067.96872,443.88709
1070.11631,443.88709
1072.26391,443.88709
1074.41151,443.88709
1076.5591,443.88709
1078.7067,443.88709
1080.8543,443.88709
1083.00189,443.88709
1085.14949,443.88709
1087.29709,443.88709
1089.44468,443.88709
1091.59228,443.88709
1093.73988,443.88709
1095.88747,443.88709
1098.03507,443.88709
1100.18267,443.88709
1102.33026,443.88709
1104.47786,443.88709
1106.62546,443.88709
1108.77305,443.88709
1110.92065,443.88709
1113.06825,443.88709
1115.21584,443.88709
1117.36344,443.88709
1119.51104,442.56658
1121.65863,442.56658
1123.80623,442.56658
1125.95383,442.56658
1128.10142,442.56658
1130.24902,442.56658
1132.39662,442.56658
1134.54421,442.56658
1136.69181,442.56658
1138.83941,442.56658
1140.987,442.56658
1143.1346,442.56658
1145.2822,442.56658
1147.42979,442.56658
1149.57739,442.56658
1151.72499,442.56658
1153.87258,442.56658
1156.02018,441.24607
1158.16778,441.24607
1160.31537,441.24607
1162.46297,441.24607
1164.61057,441.24607
1166.75816,441.24607
1168.90576,441.24607
1171.05336,441.24607
1173.20095,441.24607
1175.34855,441.24607
1177.49615,441.24607
1179.64374,441.24607
1181.79134,441.24607
1183.93894,441.24607
1186.08653,441.24607
1188.23413,441.24607
1190.38173,441.24607
1192.52932,441.24607
1194.67692,441.24607
1196.82452,441.24607
1198.97211,441.24607
1201.11971,441.24607
1203.26731,441.24607
1205.4149,441.24607
1207.5625,441.24607
1209.7101,441.24607
1211.85769,441.24607
1214.00529,441.24607
1216.15289,441.24607
1218.30048,441.24607
1220.44808,441.24607
1222.59568,441.24607
1224.74327,441.24607
1226.89087,441.24607
1229.03847,441.24607
1231.18606,441.24607
1233.33366,441.24607
1235.48126,441.24607
1237.62885,441.24607
1239.77645,441.24607
1241.92405,441.24607
1244.07164,441.24607
1246.21924,441.24607
1248.36684,441.24607
1250.51443,441.24607
1252.66203,442.56658
1254.80963,442.56658
1256.95722,442.56658
1259.10482,442.56658
1261.25242,442.56658
1263.40001,442.56658
1265.54761,442.56658
1267.69521,442.56658
1269.8428,442.56658
1271.9904,443.88709
1274.138,443.88709
1276.28559,443.88709
1278.43319,445.2076
1280.58079,445.2076
1282.72838,446.52811
1284.87598,446.52811
1287.02358,447.84862
1289.17117,447.84862
1291.31877,449.16913
1293.46637,450.48964
1295.61396,451.81015
1297.76156,453.13066
1299.90916,454.45116
1302.05675,455.77167
1304.20435,455.77167
1306.35195,457.09218
1308.49954,458.41269
1310.64714,459.7332
1312.79474,459.7332
1314.94233,461.05371
1317.08993,462.37422
1319.23753,462.37422
1321.38512,462.37422
1323.53272,462.37422
1325.68032,462.37422
1327.82791,462.37422
1329.97551,462.37422
1332.12311,462.37422
1334.2707,462.37422
1336.4183,461.05371
1338.5659,461.05371
1340.71349,461.05371
1342.86109,459.7332
1345.00869,459.7332
1347.15628,458.41269
1349.30388,458.41269
1351.45148,457.09218
1353.59907,457.09218
1355.74667,457.09218
1357.89427,455.77167
1360.04186,455.77167
1362.18946,454.45116
1364.33706,454.45116
1366.48465,454.45116
1368.63225,454.45116
1370.77985,454.45116
1372.92744,453.13066
1375.07504,453.13066
1377.22264,453.13066
1379.37023,453.13066
1381.51783,451.81015
1383.66543,451.81015
1385.81302,451.81015
1387.96062,451.81015
1390.10822,451.81015
1392.25581,451.81015
1394.40341,451.81015
1396.55101,451.81015
1398.6986,451.81015
1400.8462,451.81015
1402.9938,450.48964
1405.14139,450.48964
1407.28899,450.48964
1409.43659,450.48964
1411.58418,450.48964
1413.73178,450.48964
1415.87938,450.48964
1418.02697,450.48964
1420.17457,450.48964
1422.32217,450.48964
1424.46976,449.16913
1426.61736,449.16913
1428.76496,449.16913
1430.91255,449.16913
1433.06015,449.16913
1435.20775,449.16913
1437.35534,449.16913
1439.50294,449.16913
1441.65054,449.16913
1443.79813,449.16913
1445.94573,449.16913
1448.09333,449.16913
1450.24093,449.16913
1452.38852,447.84862
1454.53612,447.84862
1456.68372,447.84862
1458.83131,447.84862
1460.97891,447.84862
1463.12651,447.84862
1465.2741,447.84862
1467.4217,447.84862
1469.5693,447.84862
1471.71689,447.84862
1473.86449,447.84862
1476.01209,447.84862
1478.15968,446.52811
1480.30728,446.52811
1482.45488,446.52811
1484.60247,446.52811
1486.75007,446.52811
1488.89767,446.52811
1491.04526,446.52811
1493.19286,446.52811
1495.34046,446.52811
1497.48805,445.2076
1499.63565,445.2076
1501.78325,445.2076
1503.93084,445.2076
1506.07844,445.2076
1508.22604,445.2076
1510.37363,445.2076
1512.52123,445.2076
1514.66883,445.2076
1516.81642,445.2076
1518.96402,445.2076
1521.11162,445.2076
1523.25921,445.2076
1525.40681,445.2076
1527.55441,445.2076
1529.702,445.2076
1531.8496,445.2076
1533.9972,445.2076
1536.14479,445.2076
1538.29239,445.2076
1540.43999,445.2076
1542.58758,445.2076
1544.73518,445.2076
1546.88278,445.2076
1549.03037,445.2076
1551.17797,445.2076
1553.32557,445.2076
1555.47316,445.2076
1557.62076,445.2076
1559.76836,445.2076
1561.91595,445.2076
1564.06355,445.2076
1566.21115,445.2076
1568.35874,445.2076
1570.50634,445.2076
1572.65394,445.2076
1574.80153,445.2076
1576.94913,445.2076
1579.09673,445.2076
1581.24432,445.2076
1583.39192,445.2076
1585.53952,445.2076
1587.68711,445.2076
1589.83471,445.2076
1591.98231,445.2076
1594.1299,445.2076
1596.2775,445.2076
1598.4251,445.2076
1600.57269,445.2076
1602.72029,445.2076
1604.86789,445.2076
1607.01548,445.2076
1609.16308,445.2076
1611.31068,445.2076
1613.45827,445.2076
1615.60587,446.52811
1617.75347,446.52811
1619.90106,446.52811
1622.04866,446.52811
1624.19626,446.52811
1626.34385,446.52811
1628.49145,446.52811
1630.63905,446.52811
1632.78664,446.52811
1634.93424,446.52811
1637.08184,446.52811
1639.22943,446.52811
1641.37703,446.52811
1643.52463,446.52811
1645.67222,446.52811
1647.81982,446.52811
1649.96742,446.52811
1652.11501,446.52811
1654.26261,446.52811
1656.41021,446.52811
1658.5578,446.52811
1660.7054,446.52811
1662.853,446.52811
1665.00059,446.52811
1667.14819,446.52811
1669.29579,446.52811
1671.44338,446.52811
1673.59098,446.52811
1675.73858,446.52811
1677.88617,446.52811
1680.03377,447.84862
1682.18137,447.84862
1684.32896,447.84862
1686.47656,447.84862
1688.62416,447.84862
1690.77175,447.84862
1692.91935,447.84862
1695.06695,447.84862
1697.21454,449.16913
1699.36214,449.16913
1701.50974,449.16913
1703.65733,449.16913
1705.80493,447.84862
1707.95253,447.84862
1710.10012,447.84862
1712.24772,447.84862
1714.39532,447.84862
1716.54291,447.84862
1718.69051,447.84862
1720.83811,447.84862
1722.9857,446.52811
1725.1333,446.52811
1727.2809,446.52811
1729.42849,446.52811
1731.57609,446.52811
1733.72369,445.2076
1735.87128,445.2076
1738.01888,445.2076
1740.16648,445.2076
1742.31407,445.2076
1744.46167,445.2076
1746.60927,443.88709
1748.75686,443.88709
1750.90446,443.88709
1753.05206,443.88709
1755.19965,443.88709
1757.34725,443.88709
1759.49485,443.88709
1761.64244,443.88709
1763.79004,443.88709
1765.93764,443.88709
1768.08523,443.88709
1770.23283,443.88709
1772.38043,443.88709
1774.52802,443.88709
1776.67562,443.88709
1778.82322,443.88709
1780.97081,443.88709
1783.11841,443.88709
1785.26601,443.88709
1787.4136,443.88709
1789.5612,442.56658
1791.7088,442.56658
1793.85639,442.56658
1796.00399,442.56658
1798.15159,442.56658
1800.29918,442.56658
1802.44678,442.56658
1804.59438,442.56658
1806.74197,442.56658
1808.88957,442.56658
1811.03717,442.56658
1813.18476,442.56658
1815.33236,442.56658
1817.47996,442.56658
1819.62755,442.56658
1821.77515,442.56658
1823.92275,442.56658
1826.07034,442.56658
1828.21794,442.56658
1830.36554,442.56658
1832.51313,442.56658
1834.66073,442.56658
1836.80833,442.56658
1838.95592,442.56658
1841.10352,442.56658
1843.25112,442.56658
1845.39871,442.56658
1847.54631,442.56658
1849.69391,442.56658
1851.8415,442.56658
1853.9891,442.56658
1856.1367,442.56658
1858.28429,442.56658
1860.43189,442.56658
1862.57949,442.56658
1864.72708,442.56658
1866.87468,442.56658
1869.02228,442.56658
1871.16987,442.56658
1873.31747,442.56658
1875.46507,442.56658
1877.61266,442.56658
1879.76026,442.56658
1881.90786,442.56658
1884.05545,442.56658
1886.20305,442.56658
1888.35065,442.56658
1890.49824,442.56658
1892.64584,442.56658
1894.79344,442.56658
1896.94103,442.56658
1899.08863,442.56658
1901.23623,442.56658
1903.38382,442.56658
1905.53142,442.56658
1907.67902,442.56658
1909.82661,442.56658
1911.97421,442.56658
1914.12181,442.56658
1916.2694,442.56658
1918.417,442.56658
1920.5646,442.56658
1922.71219,442.56658
1924.85979,442.56658
1927.00739,442.56658
1929.15498,442.56658
1931.30258,442.56658
1933.45018,442.56658
1935.59777,442.56658
1935.59777,442.56658
1937.74537,442.56658
1937.74537,442.56658
1939.89297,442.56658
1939.89297,442.56658
1942.04056,442.56658
1942.04056,442.56658
1944.18816,442.56658
1944.18816,442.56658
1946.33576,442.56658
1946.33576,442.56658
1948.48335,442.56658
1948.48335,442.56658
1950.63095,442.56658
1950.63095,442.56658
1952.77855,442.56658
1952.77855,442.56658
1954.92614,442.56658
1954.92614,442.56658
1957.07374,442.56658
1957.07374,442.56658
1959.22134,442.56658
1959.22134,442.56658
1961.36893,442.56658
1961.36893,442.56658
1963.51653,442.56658
1963.51653,442.56658
1965.66413,442.56658
1965.66413,442.56658
1967.81172,442.56658
1967.81172,442.56658
1969.95932,442.56658
1969.95932,442.56658
1972.10692,442.56658
1972.10692,442.56658
1974.25451,442.56658
1974.25451,442.56658
1976.40211,442.56658
1976.40211,442.56658
1978.54971,442.56658
1978.54971,442.56658
1980.6973,442.56658
1980.6973,442.56658
1982.8449,442.56658
1982.8449,442.56658
1984.9925,442.56658
1984.9925,442.56658
1987.14009,442.56658
1987.14009,442.56658
1989.28769,442.56658
1989.28769,442.56658
1991.43529,442.56658
1991.43529,442.56658
1993.58288,442.56658
1993.58288,442.56658
1995.73048,442.56658
1995.73048,442.56658
1997.87808,442.56658
1997.87808,442.56658
2000.02567,442.56658
2000.02567,442.56658
2002.17327,442.56658
2002.17327,442.56658
2004.32087,442.56658
2004.32087,442.56658
2006.46846,442.56658
2006.46846,442.56658
2008.61606,442.56658
2008.61606,442.56658
2010.76366,442.56658
2010.76366,442.56658
2012.91125,442.56658
2012.91125,442.56658
2015.05885,442.56658
2015.05885,442.56658
2017.20645,442.56658
2017.20645,442.56658
2019.35404,442.56658
2019.35404,442.56658
2021.50164,442.56658
2021.50164,442.56658
2023.64924,442.56658
2023.64924,442.56658
2025.79683,442.56658
2025.79683,442.56658
2027.94443,442.56658
2027.94443,442.56658
2030.09203,442.56658
2030.09203,442.56658
2032.23962,442.56658
2032.23962,442.56658
2034.38722,442.56658
2034.38722,442.56658
2036.53482,442.56658
2036.53482,442.56658
2038.68241,442.56658
2038.68241,442.56658
2040.83001,442.56658
2040.83001,442.56658
2042.97761,442.56658
2042.97761,442.56658
2045.1252,442.56658
2045.1252,442.56658
2047.2728,442.56658
2047.2728,442.56658
2049.4204,442.56658
2049.4204,442.56658
2051.56799,442.56658
2051.56799,442.56658
2053.71559,442.56658
2053.71559,442.56658
2055.86319,442.56658
2055.86319,442.56658
2058.01078,442.56658
2058.01078,442.56658
2060.15838,442.56658
2060.15838,442.56658
2062.30598,442.56658
2062.30598,442.56658
2064.45357,442.56658
2064.45357,442.56658
2066.60117,442.56658
2066.60117,442.56658
2068.74877,442.56658
2068.74877,442.56658
2070.89636,442.56658
2070.89636,442.56658
2073.04396,442.56658
2073.04396,442.56658
2075.19156,442.56658
2075.19156,442.56658
2077.33915,442.56658
2077.33915,442.56658
2079.48675,442.56658
2079.48675,442.56658
2081.63435,442.56658
2081.63435,442.56658
2083.78194,442.56658
2083.78194,442.56658
2085.92954,442.56658
2085.92954,442.56658
2088.07714,442.56658
2088.07714,442.56658
2090.22473,442.56658
2090.22473,442.56658
2092.37233,442.56658
2092.37233,442.56658
2094.51993,442.56658
2094.51993,442.56658
2096.66753,442.56658
2096.66753,442.56658
2098.81512,442.56658
2098.81512,442.56658
2100.96272,442.56658
2100.96272,442.56658
2103.11032,442.56658
2103.11032,442.56658
2105.25791,442.56658
2105.25791,442.56658
2107.40551,442.56658
2107.40551,442.56658
2109.55311,442.56658
2109.55311,442.56658
2111.7007,442.56658
2111.7007,442.56658
2113.8483,442.56658
2113.8483,442.56658
2115.9959,442.56658
2115.9959,442.56658
2118.14349,442.56658
2118.14349,442.56658
2120.29109,442.56658
2120.29109,442.56658
2122.43869,442.56658
2122.43869,442.56658
2124.58628,442.56658
2124.58628,442.56658
2126.73388,442.56658
2126.73388,442.56658
2128.88148,442.56658
2128.88148,442.56658
2131.02907,442.56658
2131.02907,442.56658
2133.17667,442.56658
2133.17667,442.56658
2135.32427,442.56658
2135.32427,442.56658
2137.47186,442.56658
2137.47186,442.56658
2139.61946,442.56658
2139.61946,442.56658
2141.76706,442.56658
2141.76706,442.56658
2143.91465,442.56658
2143.91465,442.56658
2146.06225,442.56658
2146.06225,442.56658
2148.20985,442.56658
2148.20985,442.56658
2150.35744,442.56658
2150.35744,442.56658
2152.50504,442.56658
2152.50504,442.56658
2154.65264,442.56658
2154.65264,442.56658
2156.80023,442.56658
2156.80023,442.56658
2158.94783,442.56658
2158.94783,442.56658
2161.09543,442.56658
2161.09543,442.56658
2163.24302,442.56658
2163.24302,442.56658
2165.39062,442.56658
2165.39062,442.56658
2167.53822,442.56658
2167.53822,442.56658
2169.68581,442.56658
2169.68581,442.56658
2171.83341,442.56658
2171.83341,442.56658
2173.98101,442.56658
2173.98101,442.56658
2176.1286,442.56658
2176.1286,442.56658
2178.2762,442.56658
2178.2762,442.56658
2180.4238,442.56658
2180.4238,442.56658
2182.57139,442.56658
2182.57139,442.56658
2184.71899,442.56658
2184.71899,442.56658
2186.86659,442.56658
2186.86659,442.56658
2189.01418,442.56658
2189.01418,442.56658
2191.16178,442.56658
2191.16178,442.56658
2193.30938,442.56658
2193.30938,442.56658
2195.45697,442.56658
2195.45697,442.56658
2197.60457,442.56658
2197.60457,442.56658
2199.75217,442.56658
2199.75217,442.56658
2201.89976,442.56658
2201.89976,442.56658
2204.04736,442.56658
2204.04736,442.56658
2206.19496,442.56658
2206.19496,442.56658
2208.34255,442.56658
2208.34255,442.56658
2210.49015,442.56658
2210.49015,442.56658
2212.63775,442.56658
2212.63775,442.56658
2214.78534,442.56658
2214.78534,442.56658
2216.93294,442.56658
2216.93294,442.56658
2219.08054,442.56658
2219.08054,442.56658
2221.22813,442.56658
2221.22813,442.56658
2223.37573,442.56658
2223.37573,442.56658
2225.52333,442.56658
2225.52333,442.56658
2227.67092,442.56658
2227.67092,442.56658
2229.81852,442.56658
2229.81852,442.56658
2231.96612,442.56658
2231.96612,442.56658
2234.11371,442.56658
2234.11371,442.56658
2236.26131,442.56658
2236.26131,442.56658
2238.40891,442.56658
2238.40891,442.56658
2240.5565,442.56658
2240.5565,442.56658
2242.7041,442.56658
2244.8517,442.56658
2246.99929,442.56658
2249.14689,442.56658
2251.29449,442.56658
2253.44208,442.56658
2255.58968,442.56658
2257.73728,442.56658
2259.88487,442.56658
2262.03247,442.56658
2264.18007,442.56658
2266.32766,442.56658
2268.47526,442.56658
2270.62286,442.56658
2272.77045,442.56658
2274.91805,442.56658
2277.06565,442.56658
2279.21324,442.56658
2281.36084,442.56658
2283.50844,442.56658
2285.65603,442.56658
2287.80363,442.56658
2289.95123,442.56658
2292.09882,442.56658
2294.24642,442.56658
2296.39402,442.56658
2298.54161,442.56658
2300.68921,442.56658
2302.83681,442.56658
2304.9844,442.56658
2307.132,442.56658
2309.2796,442.56658
2311.42719,442.56658
2313.57479,442.56658
2315.72239,442.56658
2317.86998,442.56658
2320.01758,442.56658
2322.16518,442.56658
2324.31277,442.56658
2326.46037,442.56658
2328.60797,442.56658
2330.75556,442.56658
2332.90316,442.56658
2335.05076,441.24607
2337.19835,441.24607
2339.34595,441.24607
2341.49355,441.24607
2343.64114,441.24607
2345.78874,441.24607
2347.93634,441.24607
2350.08393,441.24607
2352.23153,441.24607
2354.37913,441.24607
2356.52672,441.24607
2358.67432,441.24607
2360.82192,441.24607
2362.96951,441.24607
2365.11711,441.24607
2367.26471,441.24607
2369.4123,441.24607
2371.5599,441.24607
2373.7075,441.24607
2375.85509,441.24607
2378.00269,441.24607
2380.15029,441.24607
2382.29788,441.24607
2384.44548,441.24607
2386.59308,441.24607
2388.74067,441.24607
2390.88827,441.24607
2393.03587,441.24607
2395.18346,441.24607
2397.33106,441.24607
2399.47866,441.24607
2401.62625,441.24607
2403.77385,441.24607
2405.92145,441.24607
2408.06904,441.24607
2410.21664,441.24607
2412.36424,441.24607
2414.51183,441.24607
2416.65943,441.24607
2418.80703,441.24607
2420.95462,441.24607
2423.10222,441.24607
2425.24982,441.24607
2427.39741,441.24607
2429.54501,441.24607
2431.69261,441.24607
2433.8402,441.24607
2435.9878,441.24607
2438.1354,441.24607
2440.28299,441.24607
2442.43059,441.24607
2444.57819,441.24607
2446.72578,441.24607
2448.87338,441.24607
2451.02098,441.24607
2453.16857,441.24607
2455.31617,441.24607
2457.46377,441.24607
2459.61136,441.24607
2461.75896,441.24607
2463.90656,441.24607
2466.05415,441.24607
2468.20175,441.24607
2470.34935,441.24607
2472.49694,441.24607
2474.64454,441.24607
2476.79214,441.24607
2478.93973,441.24607
2481.08733,441.24607
2483.23493,441.24607
2485.38252,441.24607
2487.53012,441.24607
2489.67772,441.24607
2491.82531,441.24607
2493.97291,441.24607
2496.12051,441.24607
2498.2681,441.24607
2500.4157,441.24607
2502.5633,441.24607
2504.71089,441.24607
2506.85849,441.24607
2509.00609,441.24607
2511.15368,441.24607
2513.30128,441.24607
2515.44888,441.24607
2517.59647,441.24607
2519.74407,441.24607
2521.89167,441.24607
2524.03926,441.24607
2526.18686,441.24607
2528.33446,441.24607
2530.48205,441.24607
2532.62965,441.24607
2534.77725,441.24607
2536.92484,441.24607
2539.07244,441.24607
2541.22004,441.24607
2543.36763,441.24607
2545.51523,442.56658
2547.66283,442.56658
2549.81042,442.56658
2551.95802,442.56658
2554.10562,442.56658
2556.25321,442.56658
2558.40081,442.56658
2560.54841,442.56658
2562.696,442.56658
2564.8436,442.56658
2566.9912,442.56658
2569.13879,442.56658
2571.28639,442.56658
2573.43399,442.56658
2575.58158,442.56658
2577.72918,442.56658
2579.87678,442.56658
2582.02437,442.56658
2584.17197,442.56658
2586.31957,442.56658
2588.46716,442.56658
2590.61476,442.56658
2592.76236,442.56658
2594.90995,442.56658
2597.05755,442.56658
2599.20515,442.56658
2601.35274,442.56658
2603.50034,442.56658
2605.64794,442.56658
2607.79553,442.56658
2609.94313,442.56658
2612.09073,442.56658
2614.23832,442.56658
2616.38592,442.56658
2618.53352,442.56658
2620.68111,442.56658
2622.82871,442.56658
2624.97631,442.56658
2627.1239,442.56658
2629.2715,442.56658
2631.4191,442.56658
2633.56669,442.56658
2635.71429,442.56658
2637.86189,442.56658
2640.00948,442.56658
2642.15708,442.56658
2644.30468,442.56658
2646.45227,442.56658
2648.59987,442.56658
2650.74747,442.56658
2652.89506,442.56658
2655.04266,442.56658
2657.19026,442.56658
2659.33785,442.56658
2661.48545,442.56658
2663.63305,442.56658
2665.78064,442.56658
2667.92824,442.56658
2670.07584,442.56658
2672.22343,442.56658
2674.37103,442.56658
2676.51863,442.56658
2678.66622,442.56658
2680.81382,442.56658
2682.96142,442.56658
2685.10901,442.56658
2687.25661,442.56658
2689.40421,442.56658
2691.5518,442.56658
2693.6994,442.56658
2695.847,442.56658
2697.99459,442.56658
2700.14219,442.56658
2702.28979,442.56658
2704.43738,442.56658
2706.58498,442.56658
2708.73258,442.56658
2710.88017,442.56658
2713.02777,442.56658
2715.17537,442.56658
2717.32296,442.56658
2719.47056,442.56658
2721.61816,443.88709
2723.76575,443.88709
2725.91335,443.88709
2728.06095,443.88709
2730.20854,443.88709
2732.35614,443.88709
2734.50374,443.88709
2736.65133,443.88709
2738.79893,443.88709
2740.94653,443.88709
2743.09412,443.88709
2745.24172,443.88709
2747.38932,443.88709
2749.53692,443.88709
2751.68451,443.88709
2753.83211,443.88709
2755.97971,443.88709
2758.1273,443.88709
2760.2749,443.88709
2762.4225,443.88709
2764.57009,443.88709
2766.71769,443.88709
2768.86529,443.88709
2771.01288,445.2076
2773.16048,445.2076
2775.30808,445.2076
2777.45567,445.2076
2779.60327,445.2076
2781.75087,445.2076
2783.89846,445.2076
2786.04606,445.2076
2788.19366,445.2076
2790.34125,445.2076
2792.48885,445.2076
2794.63645,445.2076
2796.78404,445.2076
2798.93164,445.2076
2801.07924,445.2076
2803.22683,445.2076
2805.37443,445.2076
2807.52203,445.2076
2809.66962,445.2076
2811.81722,445.2076
2813.96482,445.2076
2816.11241,445.2076
2818.26001,445.2076
2820.40761,446.52811
2822.5552,446.52811
2824.7028,446.52811
2826.8504,446.52811
2828.99799,446.52811
2831.14559,446.52811
2833.29319,446.52811
2835.44078,446.52811
2837.58838,446.52811
2839.73598,446.52811
2841.88357,446.52811
2844.03117,446.52811
2846.17877,447.84862
2848.32636,447.84862
2850.47396,447.84862
2852.62156,447.84862
2854.76915,447.84862
2856.91675,447.84862
2859.06435,447.84862
2861.21194,447.84862
2863.35954,447.84862
2865.50714,447.84862
2867.65473,449.16913
2869.80233,449.16913
2871.94993,449.16913
2871.94993,449.16913
2874.09752,449.16913
2874.09752,449.16913
2876.24512,449.16913
2876.24512,449.16913
2878.39272,449.16913
2878.39272,449.16913
2880.54031,449.16913
2880.54031,449.16913
2882.68791,449.16913
2882.68791,449.16913
2884.83551,449.16913
2884.83551,449.16913
2886.9831,449.16913
2886.9831,449.16913
2889.1307,449.16913
2889.1307,449.16913
2891.2783,449.16913
2891.2783,449.16913
2893.42589,449.16913
2893.42589,449.16913
2895.57349,449.16913
2895.57349,449.16913
2897.72109,449.16913
2897.72109,449.16913
2899.86868,449.16913
2899.86868,449.16913
2902.01628,449.16913
2902.01628,449.16913
2904.16388,449.16913
2904.16388,449.16913
2906.31147,449.16913
2906.31147,449.16913
2908.45907,449.16913
2908.45907,449.16913
2910.60667,449.16913
2910.60667,449.16913
2912.75426,449.16913
2912.75426,449.16913
2914.90186,449.16913
2914.90186,449.16913
2917.04946,449.16913
2917.04946,449.16913
2919.19705,449.16913
2919.19705,449.16913
2921.34465,449.16913
2921.34465,449.16913
2923.49225,449.16913
2923.49225,449.16913
2925.63984,449.16913
2925.63984,449.16913
2927.78744,449.16913
2927.78744,449.16913
2929.93504,450.48964
2932.08263,450.48964
2934.23023,450.48964
2936.37783,450.48964
2938.52542,450.48964
2940.67302,450.48964
2942.82062,451.81015
2944.96821,451.81015
2947.11581,451.81015
2949.26341,451.81015
2951.411,451.81015
2953.5586,453.13066
2955.7062,453.13066
2957.85379,453.13066
2960.00139,453.13066
2962.14899,453.13066
2964.29658,453.13066
2966.44418,454.45116
2968.59178,454.45116
2970.73937,454.45116
2972.88697,454.45116
2975.03457,454.45116
2977.18216,454.45116
2979.32976,455.77167
2981.47736,455.77167
2983.62495,455.77167
2985.77255,455.77167
2987.92015,457.09218
2990.06774,457.09218
2992.21534,457.09218
2994.36294,457.09218
2996.51053,457.09218
2998.65813,458.41269
2998.65813,458.41269
3000.80573,458.41269
3000.80573,458.41269
3002.95332,458.41269
3002.95332,458.41269
3005.10092,458.41269
3005.10092,458.41269
3007.24852,458.41269
3007.24852,458.41269
3009.39611,458.41269
3009.39611,458.41269
3011.54371,458.41269
3011.54371,458.41269
3013.69131,459.7332
3013.69131,459.7332
3015.8389,459.7332
3015.8389,459.7332
3017.9865,459.7332
3017.9865,459.7332
3020.1341,459.7332
3020.1341,459.7332
3022.28169,459.7332
3022.28169,459.7332
3024.42929,459.7332
3024.42929,459.7332
3026.57689,459.7332
3026.57689,459.7332
3028.72448,459.7332
3028.72448,459.7332
3030.87208,461.05371
3030.87208,461.05371
3033.01968,461.05371
3033.01968,461.05371
3035.16727,461.05371
3035.16727,461.05371
3037.31487,461.05371
3037.31487,461.05371
3039.46247,461.05371
3039.46247,461.05371
3041.61006,461.05371
3041.61006,461.05371
3043.75766,461.05371
3043.75766,461.05371
3045.90526,462.37422
3045.90526,462.37422
3048.05285,462.37422
3048.05285,462.37422
3050.20045,462.37422
3050.20045,462.37422
3052.34805,462.37422
3052.34805,462.37422
3054.49564,462.37422
3054.49564,462.37422
3056.64324,463.69473
3056.64324,463.69473
3058.79084,463.69473
3058.79084,463.69473
3060.93843,463.69473
3060.93843,463.69473
3063.08603,463.69473
3063.08603,463.69473
3065.23363,463.69473
3065.23363,463.69473
3067.38122,465.01524
3067.38122,465.01524
3069.52882,465.01524
3069.52882,465.01524
3071.67642,465.01524
3071.67642,465.01524
3073.82401,465.01524
3073.82401,465.01524
3075.97161,465.01524
3075.97161,465.01524
3078.11921,466.33575
3078.11921,466.33575
3080.2668,466.33575
3080.2668,466.33575
3082.4144,467.65626
3082.4144,467.65626
3084.562,467.65626
3084.562,467.65626
3086.70959,467.65626
3086.70959,467.65626
3088.85719,468.97677
3091.00479,468.97677
3093.15238,468.97677
3095.29998,470.29728
3097.44758,470.29728
3099.59517,471.61779
3101.74277,471.61779
3103.89037,471.61779
3106.03796,472.9383
3108.18556,474.2588
3110.33316,474.2588
3112.48075,474.2588
3114.62835,475.57931
3116.77595,476.89982
3118.92354,476.89982
3121.07114,478.22033
3123.21874,478.22033
3125.36633,479.54084
3127.51393,479.54084
3129.66153,480.86135
3131.80912,482.18186
3133.95672,483.50237
3136.10432,483.50237
3138.25191,484.82288
3140.39951,486.14339
3142.54711,487.4639
3144.6947,488.78441
3146.8423,490.10492
3148.9899,491.42543
3151.13749,492.74594
3153.28509,494.06644
3155.43269,494.06644
3157.58028,496.70746
3159.72788,498.02797
3159.72788,498.02797
3161.87548,499.34848
3161.87548,499.34848
3164.02307,500.66899
3164.02307,500.66899
3166.17067,501.9895
3166.17067,501.9895
3168.31827,503.31001
3168.31827,503.31001
3170.46586,505.95103
3170.46586,505.95103
3172.61346,507.27154
3172.61346,507.27154
3174.76106,508.59205
3174.76106,508.59205
3176.90865,511.23307
3176.90865,511.23307
3179.05625,512.55358
3179.05625,512.55358
3181.20385,515.19459
3181.20385,513.87408
3183.35144,513.87408
3183.35144,516.5151
3185.49904,519.15612
3185.49904,515.19459
3187.64664,516.5151
3187.64664,520.47663
3189.79423,517.83561
3189.79423,523.11765
3191.94183,525.75867
3194.08943,527.07918
3196.23702,529.7202
3198.38462,531.04071
3200.53222,533.68172
3202.67981,535.00223
3204.82741,537.64325
3206.97501,540.28427
3209.1226,541.60478
3211.2702,544.2458
3213.4178,546.88682
3215.56539,548.20733
3217.71299,550.84835
3219.86059,553.48936
3222.00818,556.13038
3224.15578,557.45089
3226.30338,560.09191
3226.30338,560.09191
3228.45097,562.73293
3228.45097,562.73293
3230.59857,564.05344
3230.59857,564.05344
3232.74617,566.69446
3232.74617,566.69446
3234.89376,568.01497
3234.89376,568.01497
3237.04136,570.65599
3237.04136,570.65599
3239.18896,573.297
3239.18896,573.297
3241.33655,574.61751
3241.33655,574.61751
3243.48415,577.25853
3243.48415,577.25853
3245.63175,579.89955
3245.63175,579.89955
3247.77934,581.22006
3247.77934,579.89955
3249.92694,581.22006
3249.92694,582.54057
3252.07454,582.54057
3252.07454,585.18159
3254.22213,583.86108
3254.22213,585.18159
3256.36973,586.5021
3256.36973,583.86108
3258.51733,587.82261
3258.51733,585.18159
3260.66492,585.18159
3260.66492,589.14312
3262.81252,585.18159
3262.81252,589.14312
3264.96012,590.46363
3267.10771,590.46363
3269.25531,590.46363
3271.40291,590.46363
3273.5505,590.46363
3275.6981,591.78414
3277.8457,591.78414
3279.99329,591.78414
3282.14089,591.78414
3284.28849,593.10464
3286.43608,593.10464
3288.58368,593.10464
3290.73128,593.10464
3292.87887,594.42515
3295.02647,594.42515
3297.17407,594.42515
3299.32166,594.42515
3301.46926,594.42515
3303.61686,594.42515
3305.76445,595.74566
3307.91205,595.74566
3310.05965,595.74566
3312.20724,595.74566
3314.35484,595.74566
3316.50244,595.74566
3318.65003,597.06617
3320.79763,597.06617
3322.94523,597.06617
3325.09282,597.06617
3327.24042,597.06617
3329.38802,597.06617
3331.53561,597.06617
3333.68321,597.06617
3335.83081,597.06617
3337.9784,597.06617
3340.126,597.06617
3342.2736,597.06617
3344.42119,597.06617
3346.56879,597.06617
3348.71639,595.74566
3350.86398,595.74566
3353.01158,595.74566
3355.15918,594.42515
3357.30677,593.10464
3359.45437,593.10464
3361.60197,591.78414
3363.74956,589.14312
3365.89716,587.82261
3368.04476,586.5021
3370.19235,585.18159
3372.33995,583.86108
3374.48755,581.22006
3376.63514,579.89955
3378.78274,577.25853
3380.93034,575.93802
3383.07793,573.297
3385.22553,571.9765
3387.37313,570.65599
3389.52072,569.33548
3391.66832,568.01497
3393.81592,566.69446
3395.96352,565.37395
3398.11111,564.05344
3400.25871,564.05344
3402.40631,564.05344
3404.5539,562.73293
3406.7015,562.73293
3408.8491,562.73293
3410.99669,561.41242
3413.14429,561.41242
3415.29189,560.09191
3417.43948,560.09191
3419.58708,560.09191
3421.73468,558.7714
3423.88227,558.7714
3426.02987,557.45089
3428.17747,556.13038
3430.32506,554.80987
3432.47266,554.80987
3434.62026,553.48936
3436.76785,552.16886
3438.91545,550.84835
3441.06305,550.84835
3443.21064,549.52784
3445.35824,548.20733
3447.50584,546.88682
3449.65343,545.56631
3451.80103,544.2458
3453.94863,542.92529
3456.09622,541.60478
3458.24382,540.28427
3460.39142,537.64325
3462.53901,536.32274
3464.68661,535.00223
3466.83421,533.68172
3468.9818,532.36122
3471.1294,531.04071
3473.277,531.04071
3475.42459,529.7202
3475.42459,529.7202
3477.57219,528.39969
3477.57219,528.39969
3479.71979,528.39969
3479.71979,528.39969
3481.86738,527.07918
3481.86738,527.07918
3484.01498,527.07918
3484.01498,527.07918
3486.16258,525.75867
3486.16258,525.75867
3488.31017,525.75867
3488.31017,525.75867
3490.45777,524.43816
3490.45777,524.43816
3492.60537,524.43816
3492.60537,524.43816
3494.75296,523.11765
3496.90056,523.11765
3499.04816,523.11765
3501.19575,524.43816
3503.34335,524.43816
3505.49095,525.75867
3507.63854,528.39969
3509.78614,531.04071
3511.93374,535.00223
3514.08133,538.96376
3516.22893,544.2458
3518.37653,549.52784
3520.52412,556.13038
3522.67172,565.37395
3524.81932,574.61751
3526.96691,583.86108
3529.11451,591.78414
3531.26211,602.34821
3533.4097,614.23279
3535.5573,623.47636
3535.5573,623.47636
3537.7049,632.71992
3537.7049,632.71992
3539.85249,639.32247
3539.85249,641.96349
3542.00009,649.88655
3542.00009,644.60451
3544.14769,649.88655
3544.14769,657.8096
3546.29528,663.09164
3546.29528,655.16858
3548.44288,659.13011
3548.44288,667.05317
3550.59048,671.0147
3552.73807,671.0147
3554.88567,668.37368
3554.88567,660.45062
3557.03327,656.48909
3557.03327,664.41215
3559.18086,652.52756
3559.18086,659.13011
3561.32846,647.24553
3561.32846,653.84807
3563.47606,645.92502
3563.47606,641.96349
3565.62365,636.68145
3565.62365,636.68145
3567.77125,626.11738
3567.77125,626.11738
3569.91885,619.51483
3569.91885,619.51483
3572.06644,607.63025
3572.06644,607.63025
3574.21404,597.06617
3574.21404,597.06617
3576.36164,585.18159
3576.36164,585.18159
3578.50923,575.93802
3578.50923,575.93802
3580.65683,566.69446
3580.65683,566.69446
3582.80443,556.13038
3582.80443,556.13038
3582.80443,533.68172
3584.95202,546.88682
3584.95202,546.88682
3584.95202,529.7202
3587.09962,527.07918
3587.09962,538.96376
3587.09962,538.96376
3589.24722,531.04071
3589.24722,531.04071
3589.24722,524.43816
3591.39481,520.47663
3591.39481,525.75867
3591.39481,524.43816
3593.54241,517.83561
3593.54241,521.79714
3593.54241,517.83561
3595.69001,517.83561
3595.69001,511.23307
3595.69001,511.23307
3597.8376,505.95103
3597.8376,505.95103
3597.8376,513.87408
3599.9852,501.9895
3599.9852,501.9895
3599.9852,511.23307
3602.1328,496.70746
3602.1328,496.70746
3604.28039,492.74594
3604.28039,492.74594
3606.42799,490.10492
3606.42799,490.10492
3608.57559,486.14339
3608.57559,486.14339
3610.72318,483.50237
3610.72318,483.50237
3612.87078,480.86135
3612.87078,480.86135
3615.01838,479.54084
3615.01838,479.54084
3617.16597,476.89982
3617.16597,476.89982
3619.31357,474.2588
3619.31357,474.2588
3621.46117,472.9383
3621.46117,472.9383
3623.60876,471.61779
3623.60876,471.61779
3625.75636,470.29728
3625.75636,470.29728
3627.90396,468.97677
3627.90396,468.97677
3630.05155,467.65626
3630.05155,467.65626
3632.19915,466.33575
3632.19915,466.33575
3634.34675,465.01524
3634.34675,465.01524
3636.49434,463.69473
3636.49434,463.69473
3638.64194,463.69473
3638.64194,463.69473
3640.78954,462.37422
3640.78954,462.37422
3642.93713,461.05371
3642.93713,461.05371
3645.08473,459.7332
3645.08473,459.7332
3647.23233,459.7332
3647.23233,459.7332
3649.37992,458.41269
3649.37992,458.41269
3651.52752,458.41269
3651.52752,458.41269
3653.67512,457.09218
3653.67512,457.09218
3655.82271,457.09218
3655.82271,457.09218
3657.97031,455.77167
3657.97031,455.77167
3660.11791,455.77167
3660.11791,455.77167
3662.2655,454.45116
3662.2655,454.45116
3664.4131,454.45116
3664.4131,454.45116
3666.5607,454.45116
3668.70829,453.13066
3670.85589,453.13066
3673.00349,453.13066
3675.15108,451.81015
3677.29868,451.81015
3679.44628,450.48964
3681.59387,450.48964
3683.74147,450.48964
3685.88907,449.16913
3688.03666,449.16913
3690.18426,449.16913
3692.33186,449.16913
3694.47945,449.16913
3696.62705,447.84862
3698.77465,447.84862
3700.92224,447.84862
3703.06984,447.84862
3705.21744,447.84862
3707.36503,446.52811
3709.51263,446.52811
3711.66023,446.52811
3713.80782,446.52811
3715.95542,446.52811
3718.10302,446.52811
3720.25061,446.52811
3722.39821,445.2076
3724.54581,445.2076
3726.6934,445.2076
3728.841,445.2076
3730.9886,445.2076
3733.13619,445.2076
3735.28379,445.2076
3737.43139,445.2076
3739.57898,445.2076
3741.72658,445.2076
3743.87418,445.2076
3746.02177,445.2076
3748.16937,445.2076
3750.31697,443.88709
3752.46456,443.88709
3754.61216,443.88709
3756.75976,443.88709
3758.90735,443.88709
3761.05495,443.88709
3763.20255,443.88709
3765.35014,443.88709
3767.49774,443.88709
3769.64534,443.88709
3771.79293,443.88709
3773.94053,443.88709
3776.08813,443.88709
3778.23572,443.88709
3780.38332,443.88709
3782.53092,442.56658
3784.67851,442.56658
3786.82611,442.56658
3788.97371,442.56658
3791.1213,442.56658
3793.2689,442.56658
3795.4165,442.56658
3797.56409,442.56658
3799.71169,442.56658
3801.85929,442.56658
3804.00688,442.56658
3806.15448,442.56658
3808.30208,442.56658
3810.44967,442.56658
3812.59727,442.56658
3814.74487,442.56658
3816.89246,442.56658
3819.04006,442.56658
3821.18766,442.56658
3823.33525,442.56658
3825.48285,442.56658
3827.63045,442.56658
3829.77804,442.56658
3831.92564,442.56658
3834.07324,442.56658
3836.22083,442.56658
3838.36843,442.56658
3840.51603,442.56658
3842.66362,442.56658
3844.81122,442.56658
3846.95882,442.56658
3849.10641,442.56658
3851.25401,441.24607
3853.40161,441.24607
3855.5492,441.24607
3857.6968,441.24607
3859.8444,441.24607
3861.99199,441.24607
3864.13959,441.24607
3866.28719,441.24607
3868.43478,441.24607
3870.58238,441.24607
3872.72998,441.24607
3874.87757,441.24607
3877.02517,441.24607
3879.17277,441.24607
3881.32036,441.24607
3883.46796,441.24607
3885.61556,441.24607
3887.76315,441.24607
3889.91075,441.24607
3892.05835,441.24607
3894.20594,441.24607
3896.35354,441.24607
3898.50114,441.24607
3900.64873,441.24607
3902.79633,441.24607
3904.94393,441.24607
3907.09152,441.24607
3909.23912,441.24607
3911.38672,441.24607
3913.53431,441.24607
3915.68191,441.24607
3917.82951,441.24607
3919.9771,441.24607
3922.1247,441.24607
3924.2723,441.24607
3926.41989,441.24607
3928.56749,441.24607
3930.71509,441.24607
3932.86268,441.24607
3935.01028,441.24607
3937.15788,441.24607
3939.30547,441.24607
3941.45307,441.24607
3943.60067,441.24607
3945.74826,441.24607
3947.89586,441.24607
3950.04346,441.24607
3952.19105,441.24607
3954.33865,441.24607
3956.48625,441.24607
3958.63384,441.24607
3960.78144,441.24607
3962.92904,441.24607
3965.07663,441.24607
3967.22423,441.24607
3969.37183,441.24607
3971.51942,441.24607
3973.66702,441.24607
3975.81462,441.24607
3977.96221,441.24607
3980.10981,441.24607
3982.25741,441.24607
3984.405,441.24607
3986.5526,441.24607
3988.7002,441.24607
