Raman Shift,Intensity
214.3785040343428,-31.553
224.78145843945092,-181.427
235.01908334044856,297.12
245.41130867789616,-94.658
255.63837774522108,47.329
265.8602158678186,517.988
276.23642015571386,-515.359
286.44772684514464,-1795.868
296.8132434111685,118.322
307.0140349346475,28.923
317.209615658554,-21.035
327.399989574551,-126.21
337.7442627077253,312.896
347.9241537664129,26.294
358.09885002992814,539.023
368.2683554736213,339.19
378.5914504125685,-228.756
388.7505051753542,-339.19
398.90438108190574,55.217
409.0530820913264,86.77
419.196612158652,170.91
429.3349752349313,163.022
439.626465572117,160.392
449.75442592354375,44.699
459.8772311743669,81.511
469.994885259468,-299.75
480.1073921097559,276.085
490.2147556521086,-7.888
500.31697980943136,312.896
510.41406850063504,297.12
520.5060256406359,-557.429
530.5928551403995,-418.072
540.6745609068894,118.322
550.7511468431039,13.147
560.8226168481124,218.239
570.888974816975,262.938
580.9502246408374,-141.987
590.8492821665859,673.122
600.9004070215597,-178.798
610.9464353206786,-7.888
620.9873709393651,255.05
631.0232177491416,-52.588
641.0539796175653,255.05
650.9230482019848,265.568
660.9437310766662,360.225
670.9593405290361,-412.813
680.9698804110958,-362.855
690.8190579752118,281.344
700.8195493193562,199.833
710.8149825658329,410.184
720.805361551138,481.177
730.6347081696804,102.546
740.6150689503047,381.26
750.4345613154874,-23.664
760.404918953056,78.881
770.3702413346182,-144.616
780.174941402227,365.484
790.1302832356378,410.184
799.925166080895,-320.785
809.8705423523497,260.309
819.6556227125038,-181.427
829.5910483782136,496.953
839.3663409610526,160.392
849.2918309472952,5.259
859.0573504311833,-347.078
868.972919634427,-252.421
878.7286806683987,186.686
888.6343439553166,-197.204
898.3803611591502,-81.511
908.12155022542,105.175
918.0124213310264,-352.337
927.743888384779,5.259
937.4705381077074,202.462
947.3466501411676,-904.507
957.0635996041163,5.259
966.7757425107702,-39.441
976.6371284824854,49.958
986.3395928168538,-199.833
996.0372613373548,255.05
1005.7301375988682,-89.399
1015.5719657306544,386.519
1025.255192198514,-155.134
1034.9336371072422,99.917
1044.6073039976543,-194.574
1054.2761964070742,-218.239
1063.9403178693246,357.596
1073.5996719147442,139.357
1083.4074711432768,-354.967
1093.057225399156,2.629
1102.70222286418,-231.386
1112.3424670547538,139.357
1121.9779614837898,218.239
1131.6087096607444,-31.553
1141.2347150916105,-36.811
1150.855981278939,907.137
1160.4725117218331,136.728
1170.0843099159465,228.756
1179.6913793534914,-105.175
1189.293723523253,57.846
1198.739039559725,270.826
1208.3320185130287,-141.987
1217.9202825891407,65.735
1227.5038352631818,257.679
1237.0826800068826,-449.624
1246.6568202885535,-583.723
1256.226259573108,-297.12
1265.639216696829,-352.337
1275.1993388504195,76.252
1284.7547703264208,-197.204
1294.3055145761757,-76.252
1303.7000868433097,312.896
1313.241541245312,68.364
1322.778318700337,-84.14
1332.310422646282,-794.073
1341.686663866676,205.092
1351.2095051416618,-244.533
1360.727683146746,168.28
1370.0902294598782,-681.01
1379.5991650801443,-368.113
1388.9526223370776,-97.287
1398.4523290278594,-491.694
1407.7967104575073,-141.987
1417.287201648047,441.736
1426.7730533080105,-70.993
1436.1038095471376,-289.232
1445.5804658554116,767.78
1454.9021792800197,-181.427
1464.369653600741,-241.903
1473.6823373500883,-525.876
1482.9905472474493,-7.888
1492.444310209452,575.835
1501.7435100404182,-220.868
1511.1881242589734,-49.958
1520.4783270994303,2.629
1529.764072276041,-34.182
1539.1950247490097,539.023
1548.4717924494323,197.204
1557.7441121511074,-168.28
1567.1614324998736,-412.813
1576.4247941832873,-199.833
1585.6837175051332,-26.294
1594.9382056544855,160.392
1604.3374199708342,-28.923
1613.5829759239496,373.372
1622.8241063047317,118.322
1632.0608142900164,168.28
1641.2931030535765,349.708
1650.6697762525291,-307.638
1659.8931649322622,-131.469
1669.1121439444323,-181.427
1678.3267164506542,-373.372
1687.53688560953,-252.421
1696.7426545766284,-312.896
1705.9440265045123,-152.504
1715.1410045427183,55.217
1724.3335918377925,-433.848
1733.5217915332687,-184.057
1742.705606769683,-120.952
1751.8850406845886,-870.325
1761.0600964125188,373.372
1770.230777085024,228.756
1779.397085830693,333.932
1788.55902577511,-5.259
1797.7166000408906,228.756
1806.8698117476447,147.245
1816.0186640120735,-252.421
1825.163159947857,444.366
1834.1559155330324,255.05
1843.29177827917,281.344
1852.4232939699289,141.987
1861.550465707216,536.394
1870.673296589972,-76.252
1879.644751645923,-68.364
1888.758979994156,270.826
1897.8688767172423,-349.708
1906.974444902422,7.888
1915.9289277003045,544.212
1925.025917750907,942.257
1934.118588458099,1196.143
1943.060390766601,1299.987
1952.144501554074,1247.905
1961.2243021666216,1034.018
1970.153450902042,652.439
1979.224709758193,97.287
1988.1454604369865,-499.583
1997.208189584475,-507.471
2006.120554048888,633.681
2015.1747655127983,446.995
2024.0787555828572,247.162
2033.12446136566,120.952
2042.0200888391555,-94.658
2051.057300920809,449.624
2059.9445775734057,-7.888
2068.9733079113576,99.917
2077.852245496608,-667.863
2086.8725060258803,-189.315
2095.743116275291,481.177
2104.6096010526526,499.583
2113.6172135316083,278.714
2122.4753884816528,-433.848
2131.329446630596,-157.763
2140.324437642892,257.679
2149.170203423979,-265.568
2158.011861050589,89.399
2166.994257105456,-134.098
2175.8276397748195,-431.219
2184.656922912145,-36.811
2193.48210937062,0.0
2202.303202000803,770.409
2211.2647105948345,-470.659
2220.077557114586,-42.07
2228.886318388424,-194.574
2237.6909972563008,194.574
2246.4915965555265,318.155
2255.2881191208,-34.182
2264.0805677841927,-489.065
2272.8689453751285,-212.98
2281.6532547204406,81.511
2290.5774032157133,404.925
2299.353517963282,107.805
2308.125572976198,457.512
2316.893571070781,-199.833
2325.6575150607823,-349.708
2334.273835606975,-302.379
2343.029746164546,2.629
2351.781610997117,-975.501
2360.5294329081007,-68.364
2369.273214698267,-107.805
2378.0129591658333,0.0
2386.7486691064114,397.037
2395.48034731306,-144.616
2404.2079965762314,-52.588
2412.788641914361,163.022
2421.5083075861257,23.664
2430.2239526247795,165.651
2438.9355798105607,-118.322
2447.64319192111,-223.497
2456.204142101211,-357.596
2464.9037980916983,2.629
2473.5994472792227,-670.492
2482.148638712344,131.469
2490.836348166158,-696.786
2499.5200590665554,102.546
2508.0575159626023,1183.222
2516.7333034706826,84.14
2525.405100652257,55.217
2533.930847154741,184.057
2542.5947372405863,-184.057
2551.112711590584,289.232
2559.768705390503,-70.993
2568.2789182109263,105.175
2576.927026515033,-34.182
2585.5711635713087,18.406
2594.069721988235,212.98
2602.5644435408976,197.204
2611.196813145194,328.673
2619.683804921093,36.811
2628.3083212822166,141.987
2636.7875938271245,152.504
2645.404267656864,94.658
2653.875831497382,-446.995
2662.343576738021,528.506
2670.948539131641,65.735
2679.408591378582,-176.169
2687.8648328054915,444.366
2696.4581076233444,-354.967
2704.906671724595,483.806
2713.351432764532,-234.015
2721.792393310454,-81.511
2730.370143142005,-339.19
2738.8034471581705,341.82
2747.232958411034,-249.791
2755.658679458633,199.833
2764.220946338093,-176.169
2772.639031576786,415.442
2781.053334313052,-155.134
2789.463857095703,-289.232
2797.8706024712737,362.855
2806.2735729839987,-170.91
2814.672771175843,-257.679
2823.0681995864725,-415.442
2831.459860753297,-425.96
2839.847757211428,465.401
2848.231891493713,113.063
2856.612266130724,-102.546
2864.988883650767,155.134
2873.3617465798743,-370.743
2881.7308574418275,-339.19
2890.096218758139,73.623
2898.457833048058,575.835
2906.815702828586,13.147
2915.169830614461,-354.967
2923.5202189181878,602.128
2931.8668702499926,-362.855
2940.209787117892,147.245
2948.41001618022,147.245
2956.7455337723804,181.427
2965.077324369493,376.002
2973.405390470638,23.664
2981.7297345726547,136.728
2989.9117125592966,-294.491
2998.2286820744484,-220.868
3006.5419370261297,-65.735
3014.8514799023105,155.134
3023.0189130185245,-21.035
3031.3211009634906,-68.364
3039.619584242202,-18.406
3047.776149306213,326.043
3056.067292329164,-97.287
3064.2166442633534,-357.596
3072.500456765243,549.541
3080.780576892153,-370.743
3088.919096831967,-318.155
3097.1919010483834,-410.184
3105.3232317767324,-336.561
3113.588729774354,-144.616
3121.712880813,194.574
3129.9710822664056,-76.252
3138.0880631202745,525.876
3146.338977686973,-494.324
3154.448797844241,-310.267
3162.692435164703,610.017
3170.7951040967964,-26.294
3178.894230970407,-283.973
3187.127000956163,-131.469
3195.218990740796,57.846
3203.3074454664093,-113.063
3211.5293695924192,281.344
3219.610701328027,212.98
3227.688504985643,-149.875
3235.899604670318,-268.197
3243.9702993997853,-199.833
3252.03747301393,10.518
3260.1011278165533,462.771
3268.297848330192,-499.583
3276.354412870096,-5.259
3284.407465536773,665.234
3292.4570086259846,262.938
3300.5030444314834,378.631
3308.545575245,-39.441
3316.720827896272,-26.294
3324.756296283769,36.811
3332.788266581294,268.197
3340.816741072602,-99.917
3348.8417220394404,328.673
3356.8632117615925,-34.182
3364.8812125168406,28.923
3372.895726580995,65.735
3380.906756227865,378.631
3388.91430372934,-115.693
3396.918371355256,65.735
3404.9189613735507,-197.204
3412.9160760501472,-120.952
3420.909717649003,-26.294
3428.8998884321263,241.903
3436.886590659553,-110.434
3444.734546370892,144.616
3452.714376952972,55.217
3460.690745709508,-247.162
3468.663654892749,-189.315
3476.633106752961,507.471
3484.5991035384795,-134.098
3492.4267178764712,-89.399
3500.385869715596,-5.259
3508.341573175334,-120.952
3516.293830496281,544.282
3524.1079469444667,-89.399
3532.0533770164475,205.092
3539.9953676218797,431.219
3547.7993978646555,-281.344
3555.734574435446,149.875
3563.666318194715,-118.322
3571.460281747888,157.763
3579.385224652753,-123.581
3587.30674138396,-99.917
3595.090657713052,454.883
3603.00538673612,247.162
3610.782634691175,391.778
3618.6905847266535,-65.735
3626.461172873067,-5.259
3634.362352626544,454.883
3642.1262895150494,-970.242
3650.020707677235,-152.504
3657.778001843908,-326.043
3665.665667090652,-226.127
3673.416327056992,-299.75
3681.163701429177,-73.623
3689.041282322214,-160.392
3696.782035212709,44.699
3704.6528847781447,89.399
3712.3870246721344,339.19
3720.117889469839,326.043
3727.845481251112,15.776
3735.702951367959,147.245
3743.4239470074463,157.763
3751.141675895298,105.175
3758.989119491133,160.392
3766.700264858686,383.89
3774.408149723422,-239.274
3782.1127761528696,212.98
3789.814146212797,-57.846
3797.644959575024,262.938
3805.339767031168,-231.386
3813.03132434014,362.855
3820.7196335607214,-683.639
3828.404696749953,-34.182
3836.086515963114,-42.07
3843.76509325378,712.563
3851.4404306737633,612.646
3859.112530273167,383.89
3866.7813941003615,307.638
3874.4470242019815,163.022
3882.109422622947,-128.84
3889.7685914064414,320.785
3897.4245325939337,236.644
3905.0772482251705,94.658
3912.7267403381848,210.351
3920.373010969284,255.05
3928.016062153074,-97.287
3935.655895922435,-173.539
3943.292514308545,55.217
3950.925919340858,291.861
3958.424585178429,-63.105
3966.051624900327,-134.098
3973.675457311714,-147.245
3981.296084435249,184.057
3988.913508291902,-205.092
3996.396478310664,-60.476
4004.007556831755,2.629
4011.615438103967,-126.21
4019.220124141517,-118.322
4026.690583777876,333.932
4034.288940385857,-81.511
4041.8841077570687,-160.392
4049.3452186808136,152.504
4056.934068499933,352.337
4064.519735065173,-52.588
4071.971514814119,-128.84
4079.550875675057,502.212
4086.996462302253,386.519
4094.5695253181984,-234.015
4102.008926541021,73.623
4109.575699558212,65.735
4117.008923081237,-260.309
4124.569413932906,391.778
4131.996467447912,425.96
4139.550683954272,507.471
4146.971575140262,552.037
4154.519525108568,519.643
4161.93426163181,432.053
4169.475952856366,311.019
4228.011654085007,178.306
4235.396210255021,55.669
4242.907210725418,-35.129
4250.415076793586,-72.332
4257.7904449892885,-34.182
4265.292102093408,-23.664
4272.790630641473,-178.798
4280.156827999919,357.596
4287.649159161061,-36.811
4295.138367597785,194.574
4302.4954112134365,415.442
4309.978433811593,-128.84
4317.329402006981,215.609
4324.8062464273535,-210.351
4332.151146724958,94.658
4339.621820615692,-57.846
4346.960660525576,-149.875
4354.425171522191,-149.875
4361.757958542046,-102.546
4369.216314267462,-315.526
4376.543055882612,49.958
4383.9952639471885,270.826
4391.315967630617,34.182
4398.762035632179,165.651
4406.07670884455,57.846
4413.516644368407,149.875
4420.825294558097,126.21
4428.130962180556,-402.295
4435.561739780205,391.778
4442.861395497304,31.553
4450.1580741507205,283.973
4457.579710724684,18.406
4464.870388562711,186.686
4472.158094827057,-28.923
4479.570607232323,60.476
4486.852323743988,-389.149
4494.131074158497,94.658
4501.534479210626,278.714
4508.807250907994,-318.155
4516.077061971264,-21.035
4523.3439142079005,-236.644
4530.735219799091,-134.098
4537.996107969229,512.729
4545.254042757973,-241.903
4552.509025966887,-397.037
4559.888261734326,-510.1
4567.13729547953,738.856
4574.383383072374,-228.756
4581.626526308552,305.008
4588.866726982291,-65.735
4596.103986886381,-99.917
4603.338307812148,554.8
4610.69653172473,13.147
4617.92492857972,-26.294
4625.150391852971,155.134
4632.372923329975,-212.98
4639.592524794789,-94.658
4646.809198030001,-134.488
4654.022944816745,-365.968
4661.233766934747,-669.821
4668.441666162253,-926.776
4675.646644276094,-1017.557
4682.8487030516335,-822.889
4690.047844262837,-223.497
4697.244069682201,399.666
4704.437381080781,-320.785
4711.627780228235,-194.574
4718.815268892759,349.708
4725.999848841122,-481.177
4733.181521838655,441.736
4740.3602896492885,-381.26
4747.536154035501,278.714
4754.583300303697,-128.84
4761.753413983191,-49.958
4768.9206294863325,507.471
4776.084948569973,-26.294
4783.246372989488,-181.427
4790.404904498872,-65.735
4797.435032206777,-715.192
4804.5878338284165,23.664
4811.73774776268,218.239
4818.884775757928,-70.993
4826.028919561082,105.175
4833.044920461813,320.785
4840.183351639585,449.624
4847.3189038270575,84.14
4854.451578765569,257.679
4861.456318765864,234.015
4868.58329482688,-544.282
4875.707398824052,-84.14
4882.703723295803,-170.91
4889.822138682386,817.738
4896.937687177771,-1319.95
4903.925611277555,-126.21
4911.035481404608,633.681
4918.142489800703,-378.631
4925.122028648751,63.105
4932.223368894192,486.436
4939.197342363797,141.987
4946.293021236786,-99.917
4953.385846941688,191.945
4960.35146024984,-462.771
4967.43863475923,833.514
4974.398699333346,-47.329
4981.480229398396,7.888
4988.43475186592,333.932
4995.510644227063,0.0
5002.459631204903,278.714
5009.529892591847,7.888
5016.473350686378,-155.134
5023.537987818112,457.512
5030.475923625207,-531.135
5037.534943210041,-2.629
5044.467363315067,499.583
5051.397052412052,249.791
5058.447683028528,-173.539
5065.371866252855,-502.212
5072.416896017057,181.427
5079.335579928018,418.072
5086.251540943114,36.811
5093.288206657562,215.609
5100.198678149784,-120.952
5107.106431592307,-15.776
5114.134748143202,373.372
5121.037021830118,-34.182
5127.93658230202,234.015
5134.833431158368,257.679
5141.85065500065,149.875
5148.742037069234,228.756
5155.630712341699,118.322
5162.516682412504,36.811
5169.522839786696,373.372
5176.403355996677,28.923
5183.281171809234,207.721
5190.156288813778,160.392
5197.028708598496,-410.184
5204.021081907653,181.427
5210.888063918697,-215.609
5217.752353495271,328.673
5224.613952220541,520.618
5231.472861676462,-176.169
5238.329083443728,431.219
5245.182619101804,-70.993
5252.033470228904,110.434
5258.881638402017,326.043
5265.727125196914,-105.175
5272.569932188097,-63.105
5279.532181775125,107.805
5286.369586094326,2.629
5293.204315354014,-178.798
5300.036371123795,354.967
5306.865754971979,-189.315
5313.692468465706,126.21
5320.516513170878,68.364
5327.216103720151,234.015
5334.034863128356,-34.182
5340.850958410447,265.568
5347.664391127459,126.21
5354.475162839211,549.541
5361.283275104273,234.015
5368.088729480027,-123.581
5374.891527522632,-205.092
5381.6916707870405,131.469
5388.489160826968,-44.699
5395.162686039381,215.609
5401.954921596684,-376.002
5408.744508555763,57.846
5415.531448465517,344.449
5422.31574287366,55.217
5428.976315601984,-241.256
5435.7553708175255,-396.266
5442.531785139763,-439.552
5449.305560111599,-400.851
5456.076697274744,-309.912
5462.724355191152,-196.467
5469.490268392445,-90.261
5476.253548375513,-21.035
5482.893493883399,49.958
5489.651558992991,205.092
5496.406995464167,-326.043
5503.039241977291,-404.925
5509.789472642318,102.546
5516.5370792381145,-21.035
5523.161640139158,347.078
5529.904049975114,567.946
5536.643840300443,-315.526
5543.260728941095,212.98
5549.995331531944,81.511
5556.607128017575,220.868
5563.336548861262,-149.875
5569.943259067753,-97.287
5576.667504142417,144.616
5583.269133936614,21.035
5589.988209211173,-2.629
5596.58476445092,-126.21
5603.298675885118,-557.429
5609.890162419251,84.14
5616.598915963696,-418.072
5623.185339632037,-5.259
5629.888941228186,-378.631
5636.470307861637,-241.903
5643.16876344182,-2.629
5649.745078862296,92.028
5656.438394349752,126.21
5663.009664370256,234.015
5669.578436568787,184.057
5676.264076103718,433.848
5682.827811578958,244.533
5689.3890535265455,352.337
5696.067030305661,-191.945
5702.623244186747,234.015
5709.176968824671,-260.309
5715.847296014435,136.728
5722.39600122282,49.958
5728.942221462719,418.072
5735.4859581482815,42.07
5742.146121627004,184.057
5748.684850350968,486.436
5755.221099782248,-373.372
5761.754871330697,-176.169
5768.404894310675,381.26
5774.933669330552,-515.359
5781.459970716278,-55.217
5787.983799873429,194.574
5794.505158206499,39.441
5801.142549523138,-81.511
5807.658925557145,336.561
5814.172834999641,-139.357
5820.684279250832,207.721
5827.193259709879,741.486
5833.699777774898,625.793
5840.203834842934,623.164
5846.7054323099655,5.259
5853.204571570954,255.05
5859.701254019747,220.868
5866.195481049195,47.329
5872.687254051074,596.87
5879.176574416102,-205.092
5885.663443533944,249.791
5892.14786279323,-397.037
5898.629833581537,113.063
5905.109357285379,-181.427
5911.586435290243,107.805
5918.061068980562,44.699
5924.533259739736,184.057
5931.003008950094,-144.616
5937.470317992949,249.791
5943.935188248557,631.052
5950.397621096134,-1020.2
5956.857617913869,31.553
5963.315180078898,291.861
5969.7703089673305,567.946
5976.105705888956,468.03
5982.556016527509,184.057
5989.003897986593,86.77
5995.449351638199,-126.21
6001.8923788532775,89.399
6008.215900781644,278.714
6014.654123287393,184.057
6021.089923438405,-39.441
6027.523302601519,378.631
6033.954262142564,2.629
6040.265942433929,470.659
6046.692110755517,904.507
6053.115863521547,168.28
6059.420472023492,36.811
6065.839441620141,57.846
6072.255999718647,-149.875
6078.553548309683,7.888
6084.965331270854,1030.718
6091.374706782226,360.225
6097.665207314269,460.142
6104.06981570238,681.01
6110.472020679961,544.282
6116.755484978421,173.539
6123.152930828903,278.714
6129.431725134898,92.028
6135.824417162912,10.518
6142.098546680769,99.917
6148.486490183052,283.973
6154.872039648391,68.364
6161.139160374798,-5.259
6167.519969269015,347.078
6173.782438208022,-289.232
6180.158511808193,610.017
6186.416334137088,323.414
6192.787677712448,533.765
6199.040858600842,31.553
6205.291741972564,-5.259
6211.656022022646,-139.357
6217.902271670246,-134.098
6224.261834810408,-299.75
6230.503455884398,599.499
6236.742785809074,-65.735
6243.095304999864,575.835
6249.330014038809,473.289
6255.677829386121,118.322
6261.907922670827,134.098
6268.1357311500615,223.497
6274.476522051649,-99.917
6280.699722436162,184.057
6286.920641805642,118.322
6293.139281413962,139.357
6299.470738832184,70.993
6305.684780516531,407.554
6311.896546218988,5.259
6318.106037189755,89.399
6324.428181717434,-202.462
6330.633084905065,-273.456
6336.835717129172,-39.441
6343.036079636258,155.134
6349.234173671932,830.885
6355.544716640681,-18.406
6361.738235515753,341.82
6367.929489673777,573.205
6374.118480356665,-315.526
6380.305208805476,-315.526
6386.489676260331,328.673
6392.671883960451,10.518
6398.851833144166,-328.673
6405.143905470883,-21.035
6411.319299566196,-55.217
6417.492438877496,294.491
6423.663324639478,402.295
6429.831958085924,444.366
6435.998340449718,70.993
6442.162472962846,152.504
6448.324356856407,397.037
6454.483993360576,-194.574
6460.641383704664,326.043
6466.79652911704,-60.476
6472.949430825232,612.646
6479.100090055821,730.968
6485.248508034543,-81.511
6491.280888225534,-94.658
6497.424868822251,362.855
6503.5666118162335,152.504
6509.706118429633,441.736
6515.843389883739,-305.008
6521.978427398899,541.653
6528.111232194642,560.058
6534.241805489546,273.456
6540.256680928833,-120.952
6546.382836142315,126.21
6552.506763482961,425.96
6558.628464165849,197.204
6564.747939405184,194.574
6570.751928194237,-226.127
6576.866997341494,-36.811
6582.979844660076,-2923.873
6589.090471360658,-149.875
6595.0857801617385,454.883
6601.192010321647,539.023
6607.296023467985,152.504
6613.39782080795,-336.561
6619.384468430493,-36.811
6625.481878753591,149.875
6631.577076864334,15.776
6637.5572509579,157.763
6643.64806916556,257.679
6649.623946782151,370.743
6655.71038980603,1018.547
6661.794626582923,2092.286
6667.764048126817,3283.961
6673.843916808139,4285.574
6679.809053455574,4789.123
6685.884558743659,1527.508
6691.957863728712,1527.508
6697.916561697035,1527.508
6703.985510351609,1527.508
6709.939934962422,1527.508
6716.004531971987,1527.508
6721.954687820689,1527.508
6728.014937863976,1527.508
6733.960829539363,1527.508
6739.904610751524,1527.508
6745.95836937274,370.743
6751.897893261092,131.469
6757.947316561804,191.945
6763.8825876987685,136.728
6769.927680334353,336.561
6775.858703285812,165.651
6781.787623684751,-704.674
6787.826249230238,449.624
6793.750928258974,42.07
6799.673508107371,-115.693
6805.705676935038,983.389
6811.624022213946,481.177
6817.540271677499,23.664
6823.5659941374615,-326.043
6829.478015817709,136.728
6835.387945040406,268.197
6841.407231460638,189.315
6847.312939671727,52.588
6853.216558775894,-239.274
6859.118089881435,299.75
6865.017534095896,420.701
6871.026143398485,299.75
6876.921377827312,210.351
6882.814528703813,176.169
6888.705597132364,344.449
6894.594584216582,215.609
6900.592544785228,352.337
6906.477333270021,326.043
6912.360043737404,418.072
6918.240677287846,383.89
6924.119235021055,-23.664
6929.995718035963,-120.952
6935.870127430717,255.05
6941.742464302697,399.666
6947.6127297485,157.763
6953.480924863958,723.08
6959.347050744116,-446.995
6965.21110848328,-7.888
6971.073099174937,-394.407
6976.93302391185,339.19
6982.79088378598,212.98
6988.64667988853,120.952
6994.500413309928,552.17
7000.35208513985,-194.574
7006.201696467178,315.526
7012.049248380063,26.294
7017.894741965851,510.1
7023.738178311156,73.623
7029.579558501813,412.813
7035.418883622879,386.519
7041.2561547586665,-97.287
7047.091372992727,247.162
7052.924539407839,-165.651
7058.645653010426,865.067
7064.474757695687,517.988
7070.301813785409,481.177
7076.126822359336,73.623
7081.949784496486,-278.714
7087.660891581778,452.254
7093.479802640664,972.871
7099.296670474898,44.699
7105.111496160462,470.659
7110.814624476749,136.728
7116.625407570507,218.239
7122.434151718757,773.038
7128.2408579944895,107.805
7133.936024250346,189.315
7139.73869639702,305.008
7145.53933386541,-115.693
7151.22854892195,31.553
7157.025158582874,468.03
7162.819736753059,641.569
7168.503009933542,252.421
7174.293566604632,1009.683
7180.082094965896,63.105
7185.759435574095,160.392
7191.54394873148,149.875
7197.2173519438,134.098
7202.997854073568,418.072
7208.667323984642,7.888
7214.443819257263,-18.406
7220.109359956041,481.177
7225.881852536215,128.84
7231.54346810597,194.574
7237.311962152613,184.057
7242.969656670975,42.07
7248.734156337254,570.576
7254.387933876205,320.785
7260.148443309525,-13.147
7265.798307935409,-144.616
7271.554831277448,318.155
7277.20078705097,249.791
7282.953328437674,449.624
7288.59537941395,410.184
7294.235498085545,415.442
7299.982093204053,184.057
7305.618313131272,-339.19
7311.252603748333,328.673
7316.993261813666,49.958
7322.623659726734,28.923
7328.252131317968,-84.14
7333.9868615261075,276.085
7339.611446441268,7.888
7345.234108016753,31.553
7350.962919544712,92.028
7356.581700459581,323.414
7362.198561010817,465.401
7367.813502182726,26.294
7373.426524958988,144.616
7379.145517410223,-383.89
7384.7546694986595,723.08
7390.361906157261,460.142
7395.967228366993,470.659
7401.570637108154,-107.805
7407.279835705631,312.896
7412.879383697611,68.364
7418.477021176703,7.888
7424.072749120482,160.392
7429.666568505905,289.232
7435.258480309247,202.462
7440.848485506111,155.134
7446.436585071431,-210.351
7452.022779979503,0.0
7457.607071203925,123.581
7463.296794702215,415.442
7468.877244915177,197.204
7474.455794380043,433.848
7480.032444067743,333.932
7485.607194948596,326.043
7491.18004799222,110.434
7496.751004167574,-141.987
7502.2129850032,105.175
7507.7801867781745,586.352
7513.345494569261,307.638
7518.908909342786,333.932
7524.470432064445,357.596
7530.03006369928,441.736
7535.587805211653,415.442
7541.1436575652915,347.078
7546.697621723266,596.87
7552.249698647978,-326.043
7557.693172648,10.518
7563.241514237732,-5.259
7568.787971459049,549.541
7574.332545271769,-220.868
7579.87523663506,-220.868
7585.416046507413,-220.868
7590.848475703144,-220.868
7596.385561603231,-220.868
7601.920768865631,-220.868
7607.454098446255,-220.868
7612.879194899509,-220.868
7618.4088080453,-220.868
7623.936546354853,-220.868
7629.462410781522,-220.868
7634.880189328982,-220.868
7640.402344837916,-220.868
7645.9226293018255,-220.868
7651.334937948188,-220.868
7656.851519109852,-220.868
7662.260197498763,-220.868
7667.773079083498,-220.868
7673.284094334183,-220.868
7678.687316594296,-220.868
7684.194637864675,-220.868
7689.7000956236625,-107.805
7695.097870006797,52.588
7700.599639370841,331.302
7705.993798107356,506.959
7711.491882781789,561.841
7716.882429503323,529.153
7722.376833188511,442.091
7727.763771521855,333.858
7733.254497913214,237.657
7738.637831480286,186.686
7744.124884268305,197.204
7749.504616686187,207.721
7754.987999556393,99.917
7760.364134437317,-137.941
7765.738489349154,-440.716
7771.216392021717,-724.069
7776.587154788423,-903.653
7782.061396717661,-895.12
7787.428570939446,-614.132
7792.793969640064,23.664
7798.262745065967,723.08
7803.624560595526,381.26
7808.984603262106,357.596
7814.447920368751,231.386
7819.804385227417,581.093
7825.159079875983,270.826
7830.616946831127,181.427
7835.968069024231,184.057
7841.317423654822,454.883
7846.665011598543,270.826
7852.115636126822,7.888
7857.459658723532,-10.518
7862.801917273948,-34.182
7868.142412651388,835.186
7873.481145728587,835.186
7878.922746278997,835.186
7884.257922859626,835.186
7889.59133977185,835.186
7894.922997886111,835.186
7900.252898072242,835.186
7905.581041199541,835.186
7910.907428136696,637.41
7916.336446752692,637.41
7921.65928952102,637.41
7926.980378718883,637.41
7932.29971521271,637.41
7937.617299868325,637.41
7942.933133550996,637.41
7948.247217125423,637.41
7953.559551455743,637.41
7958.870137405502,412.813
7964.178975837705,36.811
7969.486067614758,578.464
7974.791413598527,615.275
7980.0950146503055,554.8
7985.396871630804,-457.512
7990.696985400187,236.644
7995.995356818043,147.245
8001.291986743403,181.427
8006.586876034729,652.087
8011.880025549901,153.161
8017.067699705829,153.161
8022.357406311574,153.161
8027.645375694708,153.161
8032.931608710882,239.602
8038.216106215201,239.602
8043.498869062179,239.602
8048.779898105804,239.602
8053.955695240969,239.602
8059.233293192043,239.602
8064.509159881611,239.602
8069.783296161415,155.134
8074.952338977277,378.631
8080.223050878609,460.142
8085.492034905405,310.267
8090.759291907168,-13.147
8095.921593616502,-404.925
8101.185432936367,546.911
8106.447547759821,623.164
8111.604810570996,557.429
8116.863512715307,-42.07
8122.120492886879,473.289
8127.272724173963,-588.982
8132.526296659391,489.065
8137.778149690843,113.063
8142.925356813517,220.868
8148.173807142077,265.568
8153.4205405305,757.262
8158.562730834117,-207.721
8163.806066493191,594.24
8168.944927307508,336.561
8174.184868536668,402.295
8179.32040309432,444.366
8184.55695318873,73.623
8189.689164718173,278.714
8194.922326968728,1070.158
8200.051218694258,549.541
8205.280996387602,752.003
8210.406571529322,210.351
8215.632967947844,-47.329
8220.7552297217,336.561
8225.978248143558,-404.925
8231.097199761349,181.427
8236.316843460441,1738.021
8241.43248812982,-15.776
8246.546496881761,-70.993
8251.76110130029,207.721
8256.871807891675,-128.84
8261.98088093357,591.611
8267.190453365733,759.891
8272.296229025691,591.86
8277.400373499535,293.752
8282.604921225458,-52.432
8287.705773086778,-364.692
8292.804996120794,-561.031
8298.004526406577,-559.448
8303.100461588281,-277.941
8308.194770296956,365.484
8313.28745331115,946.577
8318.48031600209,94.658
8323.569717486189,247.162
8328.657495624051,707.304
8333.743651192239,-244.533
8338.828184966831,773.038
8344.012739449463,446.995
8349.093999566121,636.31
8354.17364022991,191.945
8359.251662214898,7.888
8364.328066294685,360.225
8369.402853242376,428.589
8374.476023830553,89.399
8379.547578831349,333.932
8384.718901354245,515.359
8389.787195221597,-312.896
8394.853875830348,1020.2
8399.91894395064,-13.147
8404.98240035212,573.205
8410.044245803958,276.085
8415.104481074803,354.967
8420.163106932847,715.192
8425.220124145773,157.763
8430.275533480788,55.217
8435.32933570461,381.26
8440.381531583458,144.616
8445.432121883085,352.337
8450.48110736873,594.24
8455.528488805172,141.987
8460.473367100913,549.541
8465.51757477424,0.0
8470.560180674485,652.087
8475.601185564497,352.337
8480.64059020661,97.287
8485.67839536271,21.035
8490.714601794163,97.287
8495.749210261878,349.708
8500.681576948675,323.414
8505.713023691114,431.219
8510.742874734438,228.756
8515.771130837642,489.065
8520.797792759218,-49.958
8525.722375497866,-483.966
8530.745883175656,-586.959
8535.7677989293,-458.268
8540.788123515384,-197.216
8545.706498587671,96.87
8550.723674892208,324.66
8555.739262280982,386.833
8560.652997083213,184.057
8565.665440644778,-78.881
8570.676297538128,436.477
8575.585398634048,541.653
8580.593116146138,391.778
8585.599249233324,247.162
8590.503723174297,191.945
8595.506721317797,262.938
8600.508137275468,134.098
8605.40799060051,657.345
8610.406276043708,-173.539
8615.303062904772,565.317
8620.298220771765,520.618
8625.191944046568,141.987
8630.18397727198,160.392
8635.074639834631,525.876
8640.063551349394,226.127
8644.951156070434,596.87
8649.936948801806,360.225
8654.821498548154,578.464
8659.804175419777,633.681
8664.685673054784,512.729
8669.665236986599,39.441
8674.543685370048,675.751
8679.520139278378,273.456
8684.395541266465,659.975
8689.2694364983,428.589
8694.241246509358,-107.805
8699.112099609058,297.12
8703.981448060618,389.149
8708.948620671701,-247.162
8713.81493124642,638.94
8718.779005433622,368.113
8723.642280973501,34.182
8728.504055374753,397.037
8733.364329332315,867.696
8738.32224658698,0.0
8743.179491154478,723.08
8748.035237374625,97.287
8752.889485940628,181.427
8757.8412577103,-23.664
8762.692482517024,373.372
8767.542211760752,749.374
8772.39044613298,602.128
8777.336083836857,291.861
8782.18130006664,646.828
8787.02502351089,223.497
8791.867254859393,-134.098
8796.707994801498,312.896
8801.547244026118,331.302
8806.385003221756,7.888
8811.319956958603,70.993
8816.154707786565,299.75
8820.987970662514,390.581
8825.819746273257,320.761
8830.650035305174,147.966
8835.478838444196,-70.126
8840.306156375878,-275.835
8845.131989785303,-411.488
8849.956339357173,-419.402
8854.779205775758,-422.931
8859.60058972489,-430.258
8864.420491888006,-420.785
8869.238912948098,-373.903
8874.055853587757,-269.015
8878.871314489159,-85.513
8883.685296334032,197.204
8888.497799803714,370.743
8893.308825579123,-89.399
8898.118374340735,462.771
8902.926446768637,544.282
8907.634964476681,-152.504
8912.440116370435,641.569
8917.243793954342,68.364
8922.045997906822,615.275
8926.846728905857,681.01
8931.645987629043,31.553
8936.443774753548,523.247
8941.142221650607,391.778
8945.937097605834,194.574
8950.73050397759,470.659
8955.522441441404,113.063
8960.215160665939,360.225
8965.004192282166,344.449
8969.791757000756,307.638
8974.577855495572,431.219
8979.26485751475,368.113
8984.048055470721,433.848
8988.829789208343,652.087
8993.51251749025,352.337
8998.291354655303,55.217
9003.068729603765,-173.424
9007.747189991118,-340.237
9012.521672326067,-440.892
9017.294694442531,-471.054
9021.968892767374,-426.396
9026.739026222178,-302.584
9031.41039612206,-95.284
9036.17764353675,199.833
9040.943434050514,478.548
9045.610551571128,420.701
9050.373459984672,470.659
9055.037755503963,510.1
9059.797784430888,128.84
9064.45926050758,415.442
9069.216412558366,723.08
9073.87507174812,502.212
9078.629349530078,302.379
9083.285194385431,333.932
9088.036600502714,454.883
9092.689633573158,320.785
9097.438170626783,244.533
9102.088394458704,273.456
9106.73722909284,55.217
9111.481482183284,-486.436
9116.12751137963,615.275
9120.868901881862,286.603
9125.512128179163,1146.411
9130.153968412898,157.763
9134.891084617178,160.392
9139.53012574118,667.863
9144.167782675046,365.484
9148.9006303586,510.1
9153.535491965213,649.457
9158.168971251744,410.184
9162.801068836525,746.744
9167.528243916331,899.249
9172.157551197888,107.805
9176.785478643267,620.534
9181.412026869286,15.776
9186.13353953768,-65.735
9190.757302472506,-60.476
9195.37968804908,231.386
9200.000696882766,399.666
9204.620329588544,184.057
9209.334785850184,436.477
9213.951639506451,-21.035
9218.567118890363,715.192
9223.181224615444,536.394
9227.79395729483,-36.811
9232.40531754132,591.611
9237.015305967328,412.813
9241.623923184923,291.861
9246.23116980579,738.856
9250.932987640888,6439.356
9255.537466379788,418.072
9260.140576367572,404.925
9264.742318214474,628.422
9269.342692530376,449.624
9273.941699924766,-99.917
9278.539341006806,178.798
9283.135616385269,134.098
9287.730526668583,368.113
9292.324072464791,173.539
9296.91625438162,715.192
9301.411444872112,160.392
9306.00092923447,265.568
9310.589051525738,475.918
9315.175812352172,57.846
9319.761212319692,397.037
9324.345252033823,365.484
9328.927932099774,715.192
9333.509253122353,431.219
9338.08921570604,294.491
9342.572446701386,452.254
9347.149722488744,289.232
9351.7256416359,136.728
9356.300204745894,-70.993
9360.873412421412,-39.441
9365.350032145325,320.785
9369.920558965528,-126.21
9374.489732144635,-131.469
9379.05755228394,349.708
9383.528899030936,378.631
9388.09404305015,184.057
9392.657835818722,528.506
9397.125240831178,404.925
9401.6863610176,567.946
9406.246131739394,307.638
9410.80455359534,394.407
9415.266701898625,670.492
9419.822455888205,649.457
9424.281993052333,441.736
9428.835081516963,68.364
9433.38682407955,702.045
9437.84243511156,394.407
9442.391515668474,205.092
9446.84452129656,368.113
9451.390942182352,262.938
9455.93602012123,504.841
9460.385108237591,583.723
9464.927530014324,165.651
9469.374018445214,399.666
9473.913786387537,696.786
9478.35767741084,354.967
9482.894793843763,662.604
9487.33608973474,502.212
9491.87055698055,431.219
9496.30926001177,728.339
9500.74668109923,1248.956
9505.277192831463,915.025
9509.71202445114,741.486
9514.23989277796,-5.259
9518.672137195834,678.381
9523.103102466685,357.596
9527.62702390948,468.03
9532.05540536064,512.729
9536.57668916292,10.518
9541.002489053764,423.33
9545.42701258622,120.952
9549.850260312329,-89.399
9554.36630345335,212.98
9558.78697410632,591.611
9563.206370618926,557.429
9567.718482324255,652.087
9572.13530512818,199.833
9576.550855454823,241.903
9580.965133854,478.548
9585.47202083257,-344.449
9589.883729992052,943.948
9594.294168883298,-31.553
9598.703338054846,286.603
9603.111238054931,234.015
9607.611613766734,57.846
9612.016950092931,449.624
9616.421018902103,402.295
9620.823820741218,596.87
9625.225356156909,326.043
9629.625625695517,-136.728
9634.02462990307,475.918
9638.422369325252,546.911
9642.81884450748,1085.935
9647.21405599481,352.337
9651.701478874824,746.744
9656.094137748323,523.247
9660.485534571855,283.973
9664.875669889248,560.058
9669.264544244,78.881
9673.65215817932,260.309
9678.03851223808,859.808
9682.423606962846,94.658
9686.807442895892,249.791
9691.19002057915,-596.87
9695.478134071804,-1485.601
9699.858223622705,-57.846
9704.23705653629,531.135
9708.614633353289,399.666
9712.990954614088,326.043
9717.36602085878,-68.364
9721.739832627154,391.778
9726.112390458671,247.162
9730.483694892511,-105.175
9734.760779687776,573.205
9739.129605581998,809.85
9743.497179682729,226.127
9747.863502527893,444.366
9752.228574655115,683.639
9756.499562339395,1104.34
9760.862161224974,-462.771
9765.223510992222,-57.846
9769.583612177565,596.87
9773.849736751828,546.911
9778.207368918504,507.471
9782.563754099236,381.26
9786.918892829211,567.946
9791.18016259473,972.871
9795.532836519418,315.526
9799.884265585692,770.409
9804.14190615754,867.696
9808.490873566669,383.89
9812.83859770701,318.155
9817.09261371952,-305.008
9821.437879345483,812.479
9825.689490172908,-89.399
9830.032299369228,323.414
9834.373867936378,42.07
9838.621861899856,360.225
9842.960977171238,333.932
9847.206571054325,326.043
9851.543235108787,410.184
9855.786430944943,615.275
9860.12064585897,541.653
9864.361445679362,344.449
9868.693213527116,184.057
9872.931619360628,-239.274
9877.26094221391,326.043
9881.49695608711,1070.158
9885.823836015392,273.456
9890.057459952584,241.903
9894.289902518456,262.938
9898.613135046206,880.843
9902.843190697367,581.093
9907.163985452502,126.21
9911.391656207565,49.958
9915.61814808206,681.01
9919.935303126713,-157.763
9924.15941311792,452.254
9928.38234571751,84.14
9932.695865648708,544.282
9936.91641937277,552.17
9941.135797191648,707.304
9945.445686598703,365.484
9949.662688544726,-2.629
9953.878516069532,368.113
9958.09316966365,560.058
9962.398234183594,344.449
9966.61051589339,468.03
9970.821625153134,339.19
9975.031562452265,407.554
9979.240328279942,107.805
9983.53937957713,567.946
9987.745778488254,575.835
9991.95100740443,394.407
9996.155066813732,896.619
10000.357957203963,199.833
10004.55967906266,449.624
10008.760232877092,-202.462
10013.050897176752,730.968
10017.249090997648,289.232
10021.446118245014,588.982
10025.641979405023,176.169
10029.83667496358,465.401
10034.03020540632,141.987
10038.222571218605,612.646
10042.413772885537,0.0
10046.603810891938,368.113
10050.79268572236,449.624
10054.980397861098,617.905
10059.16694779218,241.903
10063.352335999334,-163.908
10067.536562966066,-436.488
10071.719629175575,-582.887
10075.90153511081,-610.146
10080.082281254454,-525.308
10084.26186808891,-335.425
10088.440296096323,-47.542
10092.52676786215,331.302
10096.702904826674,657.345
10100.877884398516,502.212
10105.051707058765,349.708
10109.224373288234,255.05
10113.395883567471,481.177
10117.475590772649,144.616
10121.64481569536,549.541
10125.812886097472,-425.96
10129.979802458443,780.926
10134.145565257517,1001.795
10138.219652237512,993.906
10142.383134400929,841.402
10146.545464428116,310.267
10150.706642797257,139.357
10154.776246850048,44.699
10158.935148346747,436.477
10163.092899607942,391.778
10167.159152430871,123.581
10171.314629631466,273.456
10175.468958016776,354.967
10179.531863747628,404.925
10183.683920879565,578.464
10187.834830614069,504.841
10191.894393383842,730.968
10196.043034667582,210.351
10200.190529969435,-294.326
10204.246753902304,-624.717
10208.391983551395,-773.566
10212.44599199288,-733.616
10216.588957845182,-497.608
10220.640752609928,-58.283
10224.781456519388,591.611
10228.831039420063,1112.229
10232.969483238625,525.876
10237.016856085897,510.1
10241.15304166346,573.205
10245.19820626604,475.918
10249.332135450502,26.294
10253.375093615126,391.778
10257.506768252357,638.94
10261.547521783785,283.973
10265.58718577827,904.507
10269.715494418666,552.17
10273.752956473523,63.105
10277.87901516247,-1141.152
10281.91427707755,581.093
10285.948451675904,286.603
10290.0711512271,520.618
10294.10312837192,436.477
10298.13401952729,65.735
10302.253364041218,239.274
10306.282060424935,741.486
10310.309672144327,780.926
10314.425665714796,418.072
10318.451085340042,173.539
10322.475421623927,15.776
10326.498675003731,205.092
10330.610215200984,838.773
10334.631280043344,344.449
10338.651263301725,286.603
10342.670165412448,510.1
10346.687986811625,1062.27
10350.704727935088,315.526
10354.80961387438,418.072
10358.824171771252,110.434
10362.837650708272,723.08
10366.850051120337,610.017
10370.86137344214,360.225
10374.871618108127,681.01
10378.880785552512,65.735
10382.888876209276,134.098
10386.984923052532,194.574
10390.990837530662,352.337
10394.995676531347,23.664
10398.999440487634,110.434
10403.00212983234,102.546
10407.003744998048,1020.2
10411.004286417105,13.147
10415.003754521616,68.364
10419.002149743475,-186.686
10422.999472514348,-226.127
10426.995723265634,220.868
10430.990902428544,628.422
10434.985010434026,533.765
10438.889325180557,2.629
10442.881315942828,160.392
10446.872236829608,354.967
10450.86208827093,315.526
10454.85087069661,1235.81
10458.838584536235,210.351
10462.82523021915,699.416
10466.810808174472,591.611
10470.706785742112,-1198.998
10474.690253232264,226.127
10478.672654271297,249.791
10482.653989287404,-260.309
10486.634258708573,186.686
10490.525047770485,-431.219
10494.50321094102,615.275
10498.480309789697,362.855
10502.45634474356,376.002
10506.342995080442,933.431
10510.316927143493,533.765
10514.2897965821,-460.142
10518.261603822417,202.462
10522.144122034457,289.232
10526.113829736623,297.12
10530.082476508169,326.043
10533.961905709137,-105.175
10537.92845544769,257.679
10541.89394552126,128.84
10545.770289396216,18.406
10549.733684937964,507.471
10553.607981637546,149.875
10557.569284306495,770.409
10561.52952941227,126.21
10565.400746905443,573.205
10569.35890163298,197.204
10573.22807600992,255.05
10577.184142013864,415.442
10581.05127489159,901.878
10585.005253824836,26.294
10588.87034681866,631.052
10592.822240332363,247.162
10596.685295055897,470.659
10600.635104799476,368.113
10604.496122864624,-283.973
10608.443850485746,-44.699
10612.302833502728,176.169
10616.160811022752,376.002
10620.10543022464,349.708
10623.9613750996,428.589
10627.903916281392,-21.035
10631.757830117263,289.232
10635.61074043666,-49.958
10639.550179321655,352.337
10643.401060998756,-394.407
10647.250940343372,118.322
10651.187280591832,433.848
10655.035133687184,457.512
10658.881985632182,749.374
10662.815230898605,-2.629
10666.660058983602,-262.938
10670.50388709854,-57.846
10674.346715633475,549.541
10678.275847672114,-160.392
10682.116655520924,97.287
10685.956464967534,712.563
10689.795276401208,128.84
10693.633090210977,276.085
10697.557095575656,-420.701
10701.39289265285,34.182
10705.227693280882,149.875
10709.061497847986,549.541
10712.894306742182,76.252
10716.726120351308,-357.596
10720.55693906298,631.052
10724.386763264632,728.339
10728.302600658342,78.881
10732.130414421008,-57.846
10735.957234843503,-44.699
10739.783062312445,-328.673
10743.60789721425,273.456
10747.431739935131,-39.441
10751.254590861114,44.699
10755.076450378,-278.714
10758.897318871408,341.82
10762.717196726757,52.588
10766.536084329256,-141.987
10770.353982063916,-65.735
10774.170890315563,357.596
10777.98680946881,294.491
10781.801739908076,552.17
10785.615682017564,302.379
10789.341989100834,289.232
10793.153978142976,60.476
10796.964979998098,402.295
10800.774995049622,446.995
10804.58402368077,457.512
10808.392066274577,89.399
10812.199123213884,155.134
10816.005194881312,454.883
10819.723813349112,63.105
10823.52793799081,123.581
10827.331078498672,120.952
10831.133235254529,141.987
10834.848029253728,283.973
10838.64824198676,276.085
10842.447472103491,283.973
10846.24571998498,-191.945
10849.956695412544,70.993
10853.753002267928,107.805
10857.548328021428,126.21
10861.342673053316,378.631
10865.049835794096,-378.631
10868.842242790466,-118.322
10872.63367019626,-149.875
10876.337982712816,423.33
10880.12747431772,13.147
10883.82989575329,2.629
10887.617453039476,173.539
10891.404032613404,178.798
10895.103609289945,454.883
10898.88825677408,-667.863
10902.585945994537,368.113
10906.368662867266,39.441
10910.150403901262,-425.96
10913.845253813895,-52.588
10917.62506645972,-99.917
10921.318032531915,255.05
10925.095918264182,136.728
10928.787001936307,707.304
10932.562962228116,-84.14
10936.252164939066,268.197
10939.940438510435,310.267
10943.713524449233,-191.945
10947.399919206764,289.232
10951.171083372872,226.127
10954.855600751816,231.386
10958.62484461311,-431.219
10962.307486047235,-879.204
10965.989200819247,-936.715
10969.755577991731,-724.235
10973.435418958636,-362.255
10977.114334320191,28.737
10980.877848072992,328.255
10984.554891765896,415.808
10988.231010908596,170.91
10991.991664505884,-252.421
10995.665914113146,-34.182
10999.33924022374,191.945
11003.011643185791,489.065
11006.768495629847,562.688
11010.439031890255,-252.421
11014.108646053544,880.843
11017.777338467138,-244.533
11021.530395518184,15.776
11025.197224058184,170.91
11028.863131897786,-307.638
11032.528119383707,-13.147
11036.192186862492,92.028
11039.855334680517,-63.105
11043.602720353196,-336.561
11047.264008520897,376.002
11050.924378073953,276.085
11054.58382935806,289.232
11058.242362718707,31.553
11061.899978501227,428.589
11065.556677050785,-52.588
11069.21245871235,310.267
11072.867323830738,99.917
11076.521272750586,573.205
11080.174305816368,94.658
11083.826423372368,418.072
11087.477625762698,294.491
11091.127913331318,-118.322
11094.777286422,120.952
11098.425745378345,26.294
11102.073290543767,228.756
11105.719922261547,15.776
11109.36564087477,318.155
11113.010446726335,-13.147
11116.654340159006,-107.805
11120.29732151534,575.835
11123.93939113774,-86.77
11127.580549368427,65.735
11131.22079654947,283.973
11134.77550763161,107.805
11138.413954906267,-415.442
11142.051492148485,546.911
11145.688119699626,2.629
11149.323837900913,310.267
11152.958647093375,-349.708
11156.508048620988,73.623
11160.141061938251,378.631
11163.773167260852,47.329
11167.40436492916,234.015
11170.950240228543,544.282
11174.579644697213,-68.364
11178.208142523734,439.107
11181.751381744987,336.561
11185.378088371155,-92.028
11189.003889365817,78.881
11192.628785068173,286.603
11196.16850723805,149.875
11199.79161440632,357.596
11203.413817290922,42.07
11206.950910239968,-244.533
11210.571326582844,391.778
11214.10667518314,-139.357
11217.725306305692,641.569
11221.343034819707,-305.008
11224.875759069631,99.917
11228.49170435076,352.337
11232.022687482247,-155.134
11235.636850848638,-331.302
11239.166094148528,39.441
11242.778476917028,-546.911
11246.305981670925,360.225
11249.91658515709,560.058
11253.442352649325,-128.84
11257.05117816741,-163.022
11260.575209681025,81.511
11264.182258544,73.623
11267.704555360804,323.414
11271.309828880325,57.846
11274.83039228086,-262.938
11278.350099642112,473.289
11281.952723030843,326.043
11285.470698886753,578.464
11288.987819646914,-331.302
11292.587795825824,318.155
11296.103186988752,57.846
11299.70139304264,2.629
11303.215055883851,-120.952
11306.727865201254,-525.876
11310.23982130582,-73.623
11313.834511810855,-39.441
11317.34474212601,333.932
11320.8541201677,-57.846
11324.446172200132,239.274
11327.953826352135,281.344
11331.460629168672,691.527
11334.96658095964,310.267
11338.471682034791,312.896
11342.059356881087,-360.225
11345.562737216636,-10.518
11349.06526777208,-394.407
11352.566948856567,-63.105
11356.067780779093,-5.259
11359.56776384851,-60.476
11363.1502007606,168.28
11366.648466857394,268.197
11370.145885034064,649.457
11373.642455598843,610.017
11377.138178859836,163.022
11380.633055125,-339.19
11384.1270847021,-97.287
11387.620267898808,370.743
11391.112605022612,78.881
11394.60409638087,460.142
11398.094742280777,-181.427
11401.584543029392,399.666
11405.073498933603,-257.679
11408.561610300185,323.414
11412.048877435727,7.888
11415.5353006467,-131.469
11419.020880239405,-281.344
11422.505616520008,141.987
11425.989509794525,631.052
11429.472560368817,228.756
11432.954768548592,-149.875
11436.43613463944,-102.546
11439.916658946764,-349.708
11443.313501961433,-228.756
11446.79236364179,-141.987
11450.270384446749,-84.14
11453.74756468115,60.476
11457.22390464968,333.932
11460.699404656869,536.394
11464.091344754375,431.219
11467.565185732994,134.098
11471.038187655771,60.476
11474.51035082668,55.217
11477.981675549512,483.806
11481.369541233144,168.28
11484.839209915755,-84.14
11488.30804105362,-147.245
11491.693473394258,-199.833
11495.16065027576,-173.539
11498.626990514544,-126.21
11502.092494413417,70.993
11505.474679896604,-89.399
11508.938531918346,615.275
11512.401548500471,152.504
11515.78130675673,28.923
11519.242673239612,131.469
11522.620821260369,141.987
11526.080538823127,-202.462
11529.5394224415,15.776
11532.915147579475,-468.03
11536.372384051368,-212.98
11539.74650183491,262.938
11543.202092336618,89.399
11546.574603913472,228.756
11550.028549620163,-517.988
11553.399456136987,0.0
11556.85175822272,-102.546
11560.221060825072,-336.561
11563.67172046279,-565.317
11567.039420295116,-110.434
11570.488438656655,523.247
11573.854536862347,260.309
11577.301915118398,-23.664
11580.666412839755,181.427
11584.030120381583,-26.294
11587.475050538147,-610.017
11590.837159300165,223.497
11594.280452266124,63.105
11597.64096338792,-186.686
11601.000685734118,-160.392
11604.441534950183,-152.504
11607.79966135666,-249.791
11611.156999826935,68.364
11614.59540789372,-212.98
11617.951152122365,-99.917
11621.306109253032,21.035
11624.66027956261,76.252
11628.09544335218,-483.806
11631.44802167594,-252.421
11634.799814015252,-78.881
11638.15082064648,-23.664
11641.58274474832,-333.932
11644.932161645294,562.688
11648.280793669244,-244.533
11651.62864109602,620.534
11654.975704201344,633.681
11658.403590030808,81.511
11661.749066206958,-120.952
11665.093758894744,-365.484
11668.43766836938,-352.337
11671.780794905935,-268.197
11675.12313877933,78.881
11678.4647002644,-70.993
11681.805479635816,-194.574
11685.145477168146,-28.923
11688.484693135812,76.252
11691.904543291126,-470.659
11695.24217790648,-354.967
11698.579031786354,18.406
11701.915105204676,-52.588
11705.25039843522,-412.813
11708.584911751648,68.364
11711.918645427471,-81.511
11715.251599736104,-70.993
11718.502511651865,31.553
11721.83392703817,439.107
11725.164563870054,336.561
11728.4944224204,-94.658
11731.823502961994,-70.993
11735.15180576744,-42.07
11738.479331109273,470.659
11741.806079259855,-560.058
11745.132050491462,31.553
11748.457245076206,-302.379
11751.70058915004,84.14
11755.024250183047,-176.169
11758.34713537819,-76.252
11761.669245007088,-126.21
11764.990579341233,-528.506
11768.230158619372,70.993
11771.549962071174,131.469
11774.86899103535,176.169
11778.187245782876,-591.611
11781.423821624776,10.518
11784.740547618409,-273.456
11788.05650020102,452.254
11791.371679643096,-99.917
11794.605256223578,-13.147
11797.91890903626,128.84
11801.231789512534,-76.252
11804.46312397414,-210.351
11807.774479408556,-228.756
11811.085063309589,99.917
11814.314157983485,207.721
11817.623218427994,397.037
11820.850827315822,-326.043
11824.158365355152,-270.826
11827.4651331948,489.065
11830.690506166697,286.603
11833.995753182851,141.987
11837.219642936305,-207.721
11840.52337017791,34.182
11843.745777735792,286.603
11847.047986250807,163.022
11850.26891263506,-307.638
11853.569603470474,-186.686
11856.789049702087,494.324
11860.088223903953,218.239
11863.30619100298,265.568
11866.603849616356,-18.406
11869.820338601929,-212.98
11873.11648267094,-89.399
11876.331494561222,347.078
11879.545777396996,-23.664
11882.839660941268,-536.394
11886.052468201013,147.245
11889.26454715598,312.896
11892.55617250015,10.518
11895.766777396242,512.729
11899.056892350098,-21.035
11902.26602420178,-57.846
11905.474428998024,-354.967
11908.682106985869,-152.504
11911.969222890988,-581.093
11915.17542984806,81.511
11918.380910743392,-120.952
11921.66577540321,144.616
11924.869786778698,-336.561
11928.07307283808,439.107
11931.27563382762,70.993
11934.477469993468,78.881
11937.758600089848,386.519
11940.95896924119,-1496.118
11944.158614312782,94.658
11947.35753555032,578.464
11950.55573319941,115.693
11953.753207505528,173.539
11957.029868231695,-131.469
11960.225878519712,-475.918
11963.42116620667,-436.477
11966.615731537608,160.392
11969.809574757444,42.07
11973.002696111003,830.885
11976.195095842992,-286.603
11979.386774197992,-473.289
11982.577731420495,-15.776
11985.767967754866,-18.406
11988.957483445382,-268.197
11992.146278736183,105.175
11995.334353871312,-173.539
11998.521709094712,63.105
12001.708344650193,-52.588
12004.894260781464,-273.456
12008.079457732136,631.052
12011.2639357457,376.002
12014.44769506553,328.673
12017.630735934905,423.33
12020.81305859698,118.322
12023.994663294816,344.449
12027.175550271351,152.504
12030.27622427429,-197.204
12033.455694464548,-76.252
12036.634447655608,107.805
12039.812484089987,-475.918
12042.989804010074,544.282
12046.166407658158,-260.309
12049.26290681064,436.477
12052.4380965329,-28.923
12055.612570703324,-120.952
12058.786329563762,-446.995
12061.880055974125,92.028
12065.052402807443,-173.539
12068.224035049663,13.147
12071.394952942192,-141.987
12074.485910333004,468.03
12077.655418093736,-52.588
12080.824212222367,191.945
12083.913099633974,-241.903
12087.080485047096,234.015
12090.247157544738,-586.352
12093.333977055809,265.568
