Raman shift,Intensity
431.03944,978.52681
433.25168,979.30772
435.46391,979.30772
437.67615,980.08863
439.88838,980.08863
442.10062,980.08863
444.31285,980.08863
446.52509,980.86955
448.73732,980.86955
450.94956,980.86955
453.1618,980.86955
455.37403,980.86955
457.58627,980.86955
459.7985,981.65046
462.01074,981.65046
464.22297,981.65046
466.43521,981.65046
468.64745,981.65046
470.85968,980.86955
473.07192,980.86955
475.28415,980.86955
477.49639,980.86955
479.70862,980.86955
481.92086,980.86955
484.1331,980.86955
486.34533,980.08863
488.55757,980.08863
490.7698,980.08863
492.98204,980.08863
495.19427,980.08863
497.40651,979.30772
499.61874,979.30772
501.83098,979.30772
504.04322,979.30772
506.25545,979.30772
508.46769,979.30772
510.67992,978.52681
512.89216,978.52681
515.10439,978.52681
517.31663,978.52681
519.52887,978.52681
521.7411,978.52681
523.95334,977.74589
526.16557,977.74589
528.37781,977.74589
530.59004,977.74589
532.80228,977.74589
535.01451,976.96498
537.22675,976.96498
539.43899,976.96498
541.65122,976.96498
543.86346,976.96498
546.07569,976.96498
548.28793,976.96498
550.50016,976.96498
552.7124,976.96498
554.92464,976.96498
557.13687,976.96498
559.34911,976.96498
561.56134,976.96498
563.77358,976.96498
565.98581,977.74589
568.19805,977.74589
570.41029,977.74589
572.62252,977.74589
574.83476,978.52681
577.04699,978.52681
579.25923,978.52681
581.47146,979.30772
583.6837,979.30772
585.89593,979.30772
588.10817,980.08863
590.32041,980.08863
592.53264,980.86955
594.74488,980.86955
596.95711,981.65046
599.16935,981.65046
601.38158,982.43137
603.59382,982.43137
605.80606,983.21228
608.01829,983.21228
610.23053,983.9932
612.44276,984.77411
614.655,984.77411
661.90385,977.95925
712.0857,972.96366
718.51927,977.95925
762.87479,976.18407
765.08702,976.18407
767.29926,976.18407
769.51149,976.18407
771.72373,976.18407
773.93596,976.18407
776.1482,976.18407
778.36044,975.40316
780.57267,974.62224
782.78491,974.62224
784.99714,974.62224
787.20938,974.62224
789.42161,975.40316
791.63385,976.18407
793.84609,976.96498
796.05832,976.96498
798.27056,976.96498
800.48279,976.96498
802.69503,976.18407
804.90726,975.40316
807.1195,976.18407
809.33173,976.18407
811.54397,976.18407
813.75621,975.40316
815.96844,974.62224
818.18068,973.84133
820.39291,973.84133
822.60515,974.62224
824.81738,975.40316
827.02962,976.18407
829.24186,976.96498
831.45409,976.96498
833.66633,976.18407
835.87856,975.40316
838.0908,974.62224
840.30303,974.62224
842.51527,974.62224
844.72751,974.62224
846.93974,974.62224
849.15198,974.62224
851.36421,974.62224
853.57645,975.40316
855.78868,976.18407
858.00092,975.40316
860.21315,975.40316
862.42539,975.40316
864.63763,975.40316
866.84986,975.40316
869.0621,975.40316
871.27433,974.62224
873.48657,975.40316
875.6988,976.18407
877.91104,976.96498
880.12328,977.74589
882.33551,977.74589
884.54775,977.74589
886.75998,977.74589
888.97222,977.74589
891.18445,977.74589
893.39669,977.74589
895.60892,977.74589
897.82116,978.52681
900.0334,978.52681
902.24563,978.52681
904.45787,978.52681
906.6701,978.52681
908.88234,978.52681
911.09457,977.74589
913.30681,978.52681
915.51905,978.52681
917.73128,978.52681
919.94352,978.52681
922.15575,978.52681
924.36799,978.52681
926.58022,978.52681
928.79246,978.52681
931.0047,977.74589
933.21693,976.96498
935.42917,976.18407
937.6414,976.18407
939.85364,976.96498
939.85364,976.18407
942.06587,977.74589
942.06587,976.96498
944.27811,978.52681
944.27811,979.30772
944.27811,980.08863
944.27811,980.86955
944.27811,981.65046
944.27811,977.74589
946.49034,981.65046
948.70258,981.65046
950.91482,981.65046
953.12705,982.43137
953.12705,983.9932
953.12705,987.11685
953.12705,983.21228
955.33929,988.67867
955.33929,984.77411
955.33929,985.55502
955.33929,986.33593
955.33929,987.89776
957.55152,992.58324
957.55152,989.45959
957.55152,990.2405
957.55152,1004.29693
959.76376,991.80232
959.76376,991.02141
959.76376,993.36415
959.76376,994.14506
959.76376,1005.07784
959.76376,998.04963
959.76376,1003.51602
959.76376,994.92598
961.97599,1001.95419
961.97599,996.4878
961.97599,1000.39237
961.97599,999.61145
961.97599,998.83054
961.97599,1001.17328
961.97599,997.26871
961.97599,1002.7351
961.97599,995.70689
961.97599,1005.85875
964.18823,1014.4488
964.18823,1006.63967
964.18823,1031.62888
964.18823,1016.01062
964.18823,1015.22971
964.18823,1030.84796
966.40047,1008.20149
966.40047,1008.98241
966.40047,1018.35336
966.40047,1007.42058
966.40047,1013.66788
966.40047,1012.88697
966.40047,1012.10606
966.40047,1016.79153
966.40047,1019.13427
966.40047,1020.6961
966.40047,1021.47701
966.40047,1022.25792
966.40047,1017.57245
966.40047,1030.06705
966.40047,1032.40979
966.40047,1033.1907
968.6127,1024.60066
968.6127,1026.9434
968.6127,1019.91518
968.6127,1025.38157
968.6127,1023.03884
968.6127,1023.81975
968.6127,1029.28614
968.6127,1028.50523
968.6127,1033.97162
968.6127,1027.72431
968.6127,1011.32514
968.6127,1010.54423
968.6127,1009.76332
968.6127,1034.75253
970.82494,1040.99983
970.82494,1035.53344
970.82494,1026.16249
970.82494,1040.21892
970.82494,1037.87618
970.82494,1038.65709
970.82494,1039.438
970.82494,1041.78074
973.03717,1036.31435
973.03717,1037.09527
973.03717,1042.56166
973.03717,1043.34257
973.03717,1046.46622
973.03717,1044.90439
973.03717,1047.24713
975.24941,1044.12348
975.24941,1045.68531
975.24941,1048.02805
975.24941,1048.80896
975.24941,1049.58987
975.24941,1050.37078
977.46164,1051.1517
979.67388,1051.1517
979.67388,1051.93261
981.88611,1051.93261
981.88611,1052.71352
981.88611,1053.49443
984.09835,1053.49443
986.31059,1053.49443
988.52282,1053.49443
990.73506,1051.93261
990.73506,1055.05626
990.73506,1052.71352
990.73506,1053.49443
990.73506,1054.27535
992.94729,1055.05626
992.94729,1054.27535
992.94729,1053.49443
992.94729,1051.1517
995.15953,1050.37078
997.37176,1049.58987
997.37176,1037.87618
997.37176,1037.09527
997.37176,1034.75253
997.37176,1035.53344
999.584,1047.24713
999.584,1033.97162
999.584,1033.1907
999.584,1046.46622
999.584,1036.31435
999.584,1048.02805
999.584,1048.80896
999.584,1038.65709
1001.79624,1039.438
1001.79624,1031.62888
1001.79624,1045.68531
1001.79624,1044.90439
1001.79624,1032.40979
1004.00847,1043.34257
1004.00847,1044.12348
1004.00847,1041.78074
1004.00847,1030.84796
1004.00847,1042.56166
1004.00847,1040.21892
1004.00847,1025.38157
1004.00847,1026.16249
1004.00847,1026.9434
1004.00847,1027.72431
1006.22071,1028.50523
1006.22071,1029.28614
1006.22071,1030.06705
1006.22071,1040.99983
1006.22071,1024.60066
1006.22071,1023.81975
1006.22071,1023.03884
1006.22071,1022.25792
1006.22071,1021.47701
1008.43294,1020.6961
1008.43294,1019.91518
1008.43294,1019.13427
1008.43294,1018.35336
1010.64518,1017.57245
1010.64518,1016.79153
1012.85741,1016.01062
1012.85741,1017.57245
1015.06965,1016.01062
1015.06965,1014.4488
1015.06965,1013.66788
1015.06965,1017.57245
1015.06965,1018.35336
1015.06965,1015.22971
1017.28189,1013.66788
1017.28189,1020.6961
1017.28189,1019.91518
1017.28189,1019.13427
1017.28189,1017.57245
1017.28189,1012.88697
1019.49412,1022.25792
1019.49412,1021.47701
1019.49412,1017.57245
1019.49412,1016.79153
1019.49412,1016.01062
1019.49412,1015.22971
1019.49412,1014.4488
1019.49412,1013.66788
1019.49412,1012.88697
1019.49412,1012.10606
1021.70636,1011.32514
1023.91859,1011.32514
1026.13083,1011.32514
1028.34306,1011.32514
1030.5553,1011.32514
1032.76753,1012.10606
1034.97977,1012.10606
1037.19201,1012.88697
1039.40424,1013.66788
1041.61648,1014.4488
1043.82871,1014.4488
1046.04095,1013.66788
1048.25318,1013.66788
1048.25318,1012.88697
1050.46542,1012.88697
1050.46542,1012.10606
1050.46542,1011.32514
1050.46542,1010.54423
1050.46542,1009.76332
1050.46542,1008.98241
1050.46542,1008.20149
1050.46542,1007.42058
1052.67766,1007.42058
1052.67766,1006.63967
1054.88989,1006.63967
1054.88989,1005.85875
1057.10213,1005.85875
1057.10213,1005.07784
1057.10213,1004.29693
1057.10213,1003.51602
1059.31436,1003.51602
1059.31436,1002.7351
1059.31436,1001.95419
1059.31436,1001.17328
1061.5266,1001.17328
1061.5266,1000.39237
1063.73883,1000.39237
1063.73883,999.61145
1063.73883,998.83054
1065.95107,998.83054
1065.95107,998.04963
1068.16331,998.04963
1068.16331,997.26871
1068.16331,996.4878
1070.37554,996.4878
1072.58778,996.4878
1074.80001,996.4878
1077.01225,996.4878
1079.22448,996.4878
1081.43672,996.4878
1081.43672,995.70689
1083.64895,995.70689
1083.64895,994.92598
1083.64895,994.14506
1083.64895,993.36415
1083.64895,992.58324
1083.64895,991.80232
1083.64895,991.02141
1085.86119,991.02141
1088.07343,991.02141
1090.28566,991.02141
1092.4979,990.2405
1094.71013,990.2405
1096.92237,990.2405
1099.1346,990.2405
1101.34684,990.2405
1103.55908,990.2405
1105.77131,990.2405
1107.98355,990.2405
1110.19578,990.2405
1112.40802,990.2405
1114.62025,990.2405
1116.83249,990.2405
1119.04472,990.2405
1121.25696,990.2405
1123.4692,990.2405
1125.68143,990.2405
1127.89367,990.2405
1130.1059,990.2405
1132.31814,990.2405
1134.53037,990.2405
1136.74261,990.2405
1138.95485,991.02141
1141.16708,991.80232
1143.37932,992.58324
1145.59155,992.58324
1147.80379,992.58324
1150.01602,991.80232
1150.01602,991.02141
1152.22826,991.02141
1154.4405,991.02141
1154.4405,990.2405
1156.65273,990.2405
1156.65273,989.45959
1158.86497,989.45959
1161.0772,989.45959
1161.0772,988.67867
1161.0772,987.89776
1163.28944,987.89776
1165.50167,987.89776
1165.50167,987.11685
1167.71391,987.11685
1167.71391,986.33593
1167.71391,985.55502
1169.92614,985.55502
1172.13838,985.55502
1174.35062,985.55502
1174.35062,984.77411
1176.56285,984.77411
1176.56285,983.9932
1178.77509,983.9932
1180.98732,983.9932
1183.19956,983.21228
1183.19956,982.43137
1183.19956,981.65046
1183.19956,980.86955
1183.19956,980.08863
1183.19956,979.30772
1185.41179,979.30772
1187.62403,979.30772
1189.83627,978.52681
1192.0485,979.30772
1194.26074,980.08863
1196.47297,980.86955
1198.68521,980.86955
1200.89744,980.86955
1203.10968,981.65046
1205.32192,982.43137
1207.53415,981.65046
1209.74639,980.86955
1211.95862,980.08863
1214.17086,979.30772
1216.38309,979.30772
1218.59533,979.30772
1220.80756,979.30772
1223.0198,978.52681
1225.23204,978.52681
1227.44427,978.52681
1229.65651,978.52681
1231.86874,978.52681
1234.08098,977.74589
1236.29321,976.96498
1238.50545,976.96498
1240.71769,976.18407
1242.92992,976.18407
1245.14216,976.18407
1247.35439,975.40316
1249.56663,975.40316
1251.77886,976.18407
1253.9911,976.96498
1256.20333,977.74589
1258.41557,977.74589
1260.62781,977.74589
1262.84004,977.74589
1265.05228,976.96498
1267.26451,976.96498
1269.47675,976.96498
1271.68898,976.18407
1273.90122,975.40316
1276.11346,974.62224
1278.32569,974.62224
1280.53793,974.62224
1282.75016,974.62224
1284.9624,974.62224
1287.17463,974.62224
1289.38687,974.62224
1291.59911,974.62224
1293.81134,974.62224
1296.02358,974.62224
1298.23581,974.62224
1300.44805,974.62224
1302.66028,974.62224
1304.87252,974.62224
1307.08475,974.62224
1309.29699,974.62224
1311.50923,974.62224
1313.72146,974.62224
1315.9337,974.62224
1318.14593,974.62224
1320.35817,974.62224
1322.5704,974.62224
1324.78264,974.62224
1326.99488,974.62224
1329.20711,975.40316
1331.41935,976.18407
1333.63158,976.96498
1335.84382,976.96498
1338.05605,976.96498
1340.26829,976.18407
1342.48052,975.40316
1344.69276,976.18407
1346.905,976.18407
1349.11723,975.40316
1351.32947,974.62224
1353.5417,973.84133
1355.75394,973.84133
1357.96617,973.84133
1360.17841,973.84133
1362.39065,973.84133
1364.60288,973.84133
1366.81512,973.84133
1369.02735,974.62224
1371.23959,975.40316
1373.45182,976.18407
1375.66406,976.18407
1377.8763,976.18407
1380.08853,976.18407
1382.30077,976.18407
1384.513,976.18407
1386.72524,976.18407
1388.93747,976.18407
1391.14971,976.18407
1393.36194,976.18407
1395.57418,975.40316
1397.78642,975.40316
1399.99865,975.40316
1402.21089,975.40316
1404.42312,975.40316
1406.63536,975.40316
1408.84759,975.40316
1411.05983,976.18407
1413.27207,976.18407
1415.4843,975.40316
1417.69654,974.62224
1419.90877,974.62224
1422.12101,975.40316
1424.33324,975.40316
1426.54548,975.40316
1428.75772,975.40316
1430.96995,975.40316
1433.18219,975.40316
1435.39442,975.40316
1437.60666,975.40316
1439.81889,975.40316
1442.03113,976.18407
1444.24336,976.18407
1446.4556,976.18407
1448.66784,976.18407
1450.88007,976.18407
1453.09231,976.18407
1455.30454,976.18407
1457.51678,976.18407
1459.72901,976.18407
1461.94125,976.18407
1464.15349,976.18407
1466.36572,976.18407
1468.57796,976.96498
1470.79019,976.96498
1473.00243,976.96498
1475.21466,976.96498
1477.4269,976.18407
1479.63913,976.18407
1481.85137,976.96498
1484.06361,976.96498
1486.27584,976.96498
1488.48808,976.96498
1490.70031,976.18407
1492.91255,976.18407
1495.12478,975.40316
1497.33702,974.62224
1499.54926,974.62224
1501.76149,974.62224
1503.97373,974.62224
1506.18596,974.62224
1508.3982,975.40316
1510.61043,976.18407
1512.82267,976.96498
1515.03491,977.74589
1517.24714,977.74589
1519.45938,976.96498
1521.67161,977.74589
1523.88385,976.96498
1526.09608,976.18407
1528.30832,975.40316
1530.52055,976.18407
1532.73279,976.96498
1534.94503,977.74589
1537.15726,977.74589
1539.3695,977.74589
1541.58173,977.74589
1543.79397,977.74589
1546.0062,977.74589
1548.21844,977.74589
1550.43068,977.74589
1552.64291,977.74589
1554.85515,977.74589
1557.06738,977.74589
1559.27962,978.52681
1561.49185,977.74589
1563.70409,977.74589
1565.91633,976.96498
1568.12856,977.74589
1570.3408,977.74589
1572.55303,976.96498
1574.76527,977.74589
1576.9775,977.74589
1579.18974,977.74589
1579.18974,978.52681
1581.40197,978.52681
1583.61421,978.52681
1583.61421,979.30772
1585.82645,979.30772
1588.03868,979.30772
1588.03868,980.08863
1590.25092,980.08863
1592.46315,980.08863
1594.67539,980.08863
1596.88762,980.86955
1599.09986,980.86955
1601.3121,981.65046
1601.3121,982.43137
1601.3121,983.21228
1603.52433,983.9932
1603.52433,984.77411
1605.73657,985.55502
1607.9488,985.55502
1610.16104,986.33593
1612.37327,986.33593
1614.58551,985.55502
1616.79774,984.77411
1619.00998,983.9932
1621.22222,983.21228
1623.43445,983.21228
1625.64669,983.21228
1627.85892,982.43137
1630.07116,982.43137
1632.28339,982.43137
1634.49563,982.43137
1636.70787,982.43137
1638.9201,983.21228
1641.13234,982.43137
1643.34457,981.65046
1645.55681,980.86955
1647.76904,981.65046
1649.98128,982.43137
1652.19352,983.21228
1654.40575,983.21228
1656.61799,983.21228
1656.61799,982.43137
1658.83022,982.43137
1661.04246,982.43137
1663.25469,981.65046
1665.46693,981.65046
1667.67916,980.86955
1667.67916,980.08863
1669.8914,980.08863
1672.10364,979.30772
1674.31587,978.52681
1676.52811,979.30772
1678.74034,979.30772
1678.74034,978.52681
1678.74034,977.74589
1678.74034,976.96498
1678.74034,976.18407
1678.74034,975.40316
1680.95258,975.40316
1683.16481,974.62224
1685.37705,974.62224
1687.58929,974.62224
1689.80152,974.62224
1692.01376,974.62224
1694.22599,973.84133
1696.43823,973.84133
1698.65046,973.84133
1700.8627,973.06042
1703.07493,973.06042
1705.28717,973.06042
1707.49941,972.2795
1709.71164,972.2795
1711.92388,973.06042
1714.13611,972.2795
1716.34835,972.2795
1718.56058,971.49859
1720.77282,971.49859
1722.98506,971.49859
1725.19729,972.2795
1727.40953,973.06042
1729.62176,973.84133
1731.834,973.06042
1734.04623,972.2795
1736.25847,971.49859
1738.47071,971.49859
1740.68294,970.71768
1742.89518,970.71768
1745.10741,970.71768
1747.31965,970.71768
1749.53188,969.93677
1751.74412,969.93677
1753.95635,969.93677
1756.16859,969.93677
1758.38083,969.93677
1760.59306,969.93677
1762.8053,969.93677
1765.01753,969.93677
1767.22977,969.93677
1769.442,969.93677
1771.65424,970.71768
1773.86648,971.49859
1776.07871,972.2795
1778.29095,972.2795
1780.50318,972.2795
1782.71542,972.2795
1784.92765,972.2795
1787.13989,972.2795
1789.35213,972.2795
1791.56436,972.2795
1793.7766,971.49859
1795.98883,970.71768
1798.20107,971.49859
1800.4133,971.49859
1802.62554,971.49859
1804.83777,971.49859
1807.05001,971.49859
1809.26225,971.49859
1811.47448,971.49859
1813.68672,970.71768
1815.89895,969.93677
1818.11119,969.15585
1820.32342,969.15585
1822.53566,969.15585
1824.7479,969.15585
1826.96013,969.93677
1829.17237,970.71768
1831.3846,971.49859
1833.59684,971.49859
1835.80907,971.49859
1838.02131,971.49859
1840.23354,971.49859
1842.44578,971.49859
1844.65802,971.49859
1846.87025,971.49859
1849.08249,971.49859
1851.29472,971.49859
1853.50696,970.71768
1855.71919,970.71768
1857.93143,970.71768
1860.14367,970.71768
1862.3559,970.71768
1864.56814,970.71768
1866.78037,970.71768
1868.99261,970.71768
1871.20484,970.71768
1873.41708,970.71768
1875.62932,970.71768
1877.84155,970.71768
1880.05379,970.71768
1882.26602,970.71768
1884.47826,970.71768
1886.69049,970.71768
1888.90273,970.71768
1891.11496,970.71768
1893.3272,970.71768
1895.53944,970.71768
1897.75167,970.71768
1899.96391,969.93677
1902.17614,969.15585
1904.38838,968.37494
1906.60061,968.37494
1908.81285,969.15585
1911.02509,969.93677
1913.23732,970.71768
1915.44956,971.49859
1917.66179,971.49859
1919.87403,971.49859
1922.08626,971.49859
1924.2985,970.71768
1926.51073,971.49859
1928.72297,971.49859
1930.93521,971.49859
1933.14744,971.49859
1935.35968,971.49859
1937.57191,971.49859
1939.78415,971.49859
1941.99638,971.49859
1944.20862,971.49859
1946.42086,970.71768
1948.63309,969.93677
1950.84533,969.15585
1953.05756,969.15585
1955.2698,969.15585
1957.48203,969.15585
1959.69427,969.15585
1961.90651,969.15585
1964.11874,969.15585
1966.33098,968.37494
1968.54321,967.59403
1970.75545,967.59403
1972.96768,967.59403
1975.17992,967.59403
1977.39215,967.59403
1979.60439,967.59403
1981.81663,967.59403
1984.02886,967.59403
1986.2411,967.59403
1988.45333,967.59403
1990.66557,967.59403
1992.8778,967.59403
1995.09004,967.59403
1997.30228,967.59403
1999.51451,967.59403
2001.72675,967.59403
2003.93898,967.59403
2006.15122,967.59403
2008.36345,967.59403
2010.57569,967.59403
2012.78793,967.59403
2015.00016,967.59403
2017.2124,967.59403
2019.42463,967.59403
2021.63687,967.59403
2023.8491,967.59403
2026.06134,967.59403
2028.27357,967.59403
2030.48581,967.59403
2032.69805,967.59403
2034.91028,967.59403
2037.12252,967.59403
2039.33475,967.59403
2041.54699,967.59403
2043.75922,967.59403
2045.97146,967.59403
2048.1837,967.59403
2050.39593,967.59403
2052.60817,967.59403
2054.8204,967.59403
2057.03264,967.59403
2059.24487,967.59403
2061.45711,967.59403
2063.66934,967.59403
2065.88158,967.59403
2068.09382,967.59403
2070.30605,967.59403
2072.51829,967.59403
2074.73052,967.59403
2076.94276,967.59403
2079.15499,967.59403
2081.36723,967.59403
2083.57947,967.59403
2085.7917,967.59403
2088.00394,967.59403
2090.21617,967.59403
2092.42841,967.59403
2094.64064,967.59403
2096.85288,967.59403
2099.06512,967.59403
2101.27735,967.59403
2103.48959,967.59403
2105.70182,967.59403
2107.91406,967.59403
2110.12629,967.59403
2112.33853,967.59403
2114.55076,967.59403
2116.763,967.59403
2118.97524,967.59403
2121.18747,967.59403
2123.39971,967.59403
2125.61194,967.59403
2127.82418,967.59403
2130.03641,967.59403
2132.24865,968.37494
2134.46089,968.37494
2136.67312,968.37494
2138.88536,968.37494
2141.09759,968.37494
2143.30983,968.37494
2145.52206,968.37494
2147.7343,968.37494
2149.94654,969.15585
2152.15877,969.93677
2154.37101,970.71768
2156.58324,971.49859
2158.79548,971.49859
2161.00771,971.49859
2163.21995,971.49859
2165.43218,970.71768
2167.64442,969.93677
2169.85666,969.15585
2172.06889,969.15585
2174.28113,969.15585
2176.49336,969.15585
2178.7056,969.15585
2180.91783,969.93677
2183.13007,970.71768
2185.34231,970.71768
2187.55454,970.71768
2189.76678,970.71768
2191.97901,970.71768
2194.19125,970.71768
2196.40348,970.71768
2198.61572,969.93677
2200.82795,969.15585
2203.04019,968.37494
2205.25243,968.37494
2207.46466,968.37494
2209.6769,968.37494
2211.88913,968.37494
2214.10137,968.37494
2216.3136,968.37494
2218.52584,968.37494
2220.73808,968.37494
2222.95031,968.37494
2225.16255,968.37494
2227.37478,968.37494
2229.58702,968.37494
2231.79925,968.37494
2234.01149,968.37494
2236.22373,968.37494
2238.43596,968.37494
2240.6482,968.37494
2242.86043,968.37494
2245.07267,968.37494
2247.2849,968.37494
2249.49714,968.37494
2251.70937,968.37494
2253.92161,968.37494
2256.13385,968.37494
2258.34608,968.37494
2260.55832,968.37494
2262.77055,968.37494
2264.98279,968.37494
2267.19502,968.37494
2269.40726,968.37494
2271.6195,968.37494
2273.83173,968.37494
2276.04397,968.37494
2278.2562,968.37494
2280.46844,968.37494
2282.68067,969.15585
2284.89291,969.93677
2287.10514,970.71768
2289.31738,971.49859
2291.52962,971.49859
2293.74185,971.49859
2295.95409,971.49859
2298.16632,971.49859
2300.37856,971.49859
2302.59079,970.71768
2304.80303,969.93677
2307.01527,969.15585
2309.2275,969.15585
2311.43974,969.15585
2313.65197,969.15585
2315.86421,968.37494
2318.07644,969.15585
2320.28868,969.93677
2322.50092,970.71768
2324.71315,971.49859
2326.92539,971.49859
2329.13762,971.49859
2331.34986,971.49859
2333.56209,971.49859
2335.77433,970.71768
2337.98656,971.49859
2340.1988,971.49859
2342.41104,971.49859
2344.62327,971.49859
2346.83551,970.71768
2349.04774,969.93677
2351.25998,969.15585
2353.47221,968.37494
2355.68445,967.59403
2357.89669,967.59403
2360.10892,967.59403
2362.32116,967.59403
2364.53339,967.59403
2366.74563,967.59403
2368.95786,967.59403
2371.1701,967.59403
2373.38234,967.59403
2375.59457,967.59403
2377.80681,967.59403
2380.01904,967.59403
2382.23128,967.59403
2384.44351,967.59403
2386.65575,967.59403
2388.86798,967.59403
2391.08022,967.59403
2393.29246,967.59403
2395.50469,967.59403
2397.71693,967.59403
2399.92916,967.59403
2402.1414,967.59403
2404.35363,967.59403
2406.56587,967.59403
2408.77811,967.59403
2410.99034,967.59403
2413.20258,967.59403
2415.41481,967.59403
2417.62705,967.59403
2419.83928,968.37494
2422.05152,968.37494
2424.26375,968.37494
2426.47599,968.37494
2428.68823,968.37494
2430.90046,968.37494
2433.1127,968.37494
2435.32493,968.37494
2437.53717,968.37494
2439.7494,968.37494
2441.96164,969.15585
2444.17388,969.93677
2446.38611,970.71768
2448.59835,970.71768
2450.81058,970.71768
2453.02282,970.71768
2455.23505,970.71768
2457.44729,970.71768
2459.65953,970.71768
2461.87176,969.93677
2464.084,969.15585
2466.29623,968.37494
2468.50847,968.37494
2470.7207,968.37494
2472.93294,968.37494
2475.14517,969.15585
2477.35741,969.93677
2479.56965,969.93677
2481.78188,969.93677
2483.99412,969.93677
2486.20635,969.15585
2488.41859,968.37494
2490.63082,969.15585
2492.84306,969.93677
2495.0553,969.93677
2497.26753,970.71768
2499.47977,970.71768
2501.692,970.71768
2503.90424,970.71768
2506.11647,970.71768
2508.32871,970.71768
2510.54095,970.71768
2512.75318,970.71768
2514.96542,969.93677
2517.17765,969.15585
2519.38989,968.37494
2521.60212,967.59403
2523.81436,966.81312
2526.02659,966.81312
2528.23883,966.81312
2530.45107,966.81312
2532.6633,966.81312
2534.87554,966.81312
2537.08777,966.81312
2539.30001,966.81312
2541.51224,966.81312
2543.72448,966.81312
2545.93672,966.81312
2548.14895,966.81312
2550.36119,966.81312
2552.57342,966.81312
2554.78566,966.81312
2556.99789,966.81312
2559.21013,966.81312
2561.42236,966.81312
2563.6346,966.81312
2565.84684,966.81312
2568.05907,966.81312
2570.27131,966.81312
2572.48354,966.81312
2574.69578,966.81312
2576.90801,966.81312
2579.12025,966.81312
2581.33249,966.81312
2583.54472,966.81312
2585.75696,966.81312
2587.96919,966.81312
2590.18143,966.81312
2592.39366,966.81312
2594.6059,966.81312
2596.81814,966.81312
2599.03037,966.81312
2601.24261,966.81312
2603.45484,966.81312
2605.66708,966.81312
2607.87931,966.81312
2610.09155,966.81312
2612.30378,966.81312
2614.51602,966.81312
2616.72826,966.81312
2618.94049,966.81312
2621.15273,966.81312
2623.36496,966.81312
2625.5772,966.81312
2627.78943,966.81312
2630.00167,966.81312
2632.21391,966.81312
2634.42614,966.81312
2636.63838,966.81312
2638.85061,966.81312
2641.06285,966.81312
2643.27508,966.81312
2645.48732,966.81312
2647.69955,966.81312
2649.91179,966.81312
2652.12403,966.81312
2654.33626,966.81312
2656.5485,966.81312
2658.76073,966.81312
2660.97297,966.81312
2663.1852,966.81312
2665.39744,966.81312
2667.60968,966.81312
2669.82191,966.81312
2672.03415,966.81312
2674.24638,966.81312
2676.45862,966.81312
2678.67085,966.81312
2680.88309,966.81312
2683.09533,966.81312
2685.30756,966.81312
2687.5198,966.81312
2689.73203,966.81312
2691.94427,966.81312
2694.1565,966.81312
2696.36874,966.81312
2698.58097,966.81312
2700.79321,966.81312
2703.00545,966.81312
2705.21768,966.81312
2707.42992,966.81312
2709.64215,966.81312
2711.85439,966.81312
2714.06662,966.81312
2716.27886,966.81312
2718.4911,966.81312
2720.70333,966.81312
2722.91557,966.81312
2725.1278,966.81312
2727.34004,966.81312
2729.55227,966.81312
2731.76451,966.81312
2733.97675,966.81312
2736.18898,966.81312
2738.40122,966.81312
2740.61345,966.81312
2742.82569,966.81312
2745.03792,966.81312
2747.25016,966.81312
2749.46239,966.81312
2751.67463,966.81312
2753.88687,966.81312
2756.0991,966.81312
2758.31134,966.81312
2760.52357,966.81312
2762.73581,966.81312
2764.94804,966.81312
2767.16028,967.59403
2769.37252,967.59403
2771.58475,967.59403
2773.79699,967.59403
2776.00922,967.59403
2778.22146,967.59403
2780.43369,967.59403
2782.64593,967.59403
2784.85816,967.59403
2787.0704,967.59403
2789.28264,967.59403
2791.49487,967.59403
2793.70711,968.37494
2795.91934,969.15585
2798.13158,969.93677
2800.34381,969.93677
2802.55605,969.93677
2804.76829,969.93677
2806.98052,969.93677
2809.19276,969.93677
2811.40499,969.93677
2813.61723,969.15585
2815.82946,969.93677
2818.0417,970.71768
2820.25394,970.71768
2822.46617,970.71768
2824.67841,970.71768
2826.89064,970.71768
2829.10288,970.71768
2831.31511,970.71768
2833.52735,970.71768
2835.73958,970.71768
2837.95182,970.71768
2840.16406,969.93677
2842.37629,969.15585
2844.58853,969.15585
2846.80076,968.37494
2849.013,968.37494
2851.22523,968.37494
2853.43747,969.15585
2855.64971,969.93677
2857.86194,970.71768
2860.07418,971.49859
2862.28641,971.49859
2864.49865,971.49859
2866.71088,971.49859
2868.92312,970.71768
2871.13536,970.71768
2873.34759,971.49859
2875.55983,972.2795
2877.77206,972.2795
2879.9843,971.49859
2882.19653,970.71768
2884.40877,971.49859
2886.621,972.2795
2888.83324,972.2795
2891.04548,972.2795
2893.25771,972.2795
2895.46995,972.2795
2897.68218,971.49859
2899.89442,971.49859
2902.10665,971.49859
2904.31889,972.2795
2906.53113,973.06042
2908.74336,972.2795
2910.9556,971.49859
2913.16783,972.2795
2915.38007,973.06042
2917.5923,973.06042
2919.80454,973.06042
2922.01677,972.2795
2924.22901,971.49859
2926.44125,970.71768
2928.65348,970.71768
2930.86572,970.71768
2933.07795,971.49859
2935.29019,970.71768
2937.50242,971.49859
2939.71466,971.49859
2941.9269,972.2795
2944.13913,973.06042
2946.35137,973.84133
2948.5636,973.84133
2950.77584,973.06042
2952.98807,972.2795
2955.20031,971.49859
2957.41255,971.49859
2959.62478,971.49859
2961.83702,971.49859
2964.04925,971.49859
2966.26149,971.49859
2968.47372,971.49859
2970.68596,972.2795
2972.89819,973.06042
2975.11043,973.84133
2977.32267,973.84133
2979.5349,973.06042
2981.74714,973.84133
2983.95937,974.62224
2986.17161,974.62224
2988.38384,974.62224
2990.59608,974.62224
2992.80832,973.84133
2995.02055,973.06042
2997.23279,972.2795
2999.44502,972.2795
3001.65726,972.2795
3003.86949,972.2795
3006.08173,972.2795
3008.29396,972.2795
3010.5062,973.06042
3012.71844,973.06042
3014.93067,973.06042
3017.14291,973.06042
3019.35514,973.84133
3021.56738,973.84133
3023.77961,974.62224
3025.99185,975.40316
3028.20409,976.18407
3030.41632,975.40316
3032.62856,975.40316
3034.84079,975.40316
3037.05303,975.40316
3039.26526,974.62224
3041.4775,973.84133
3043.68974,973.84133
3045.90197,974.62224
3048.11421,974.62224
3050.32644,975.40316
3052.53868,975.40316
3054.75091,976.18407
3056.96315,975.40316
3059.17538,975.40316
3061.38762,975.40316
3063.59986,975.40316
3065.81209,976.18407
3068.02433,976.18407
3070.23656,976.96498
3072.4488,976.96498
3074.66103,977.74589
3076.87327,977.74589
3079.08551,977.74589
3081.29774,978.52681
3083.50998,977.74589
3085.72221,978.52681
3087.93445,978.52681
3090.14668,978.52681
3092.35892,979.30772
3094.57116,979.30772
3096.78339,979.30772
3096.78339,980.08863
3096.78339,980.86955
3096.78339,981.65046
3096.78339,982.43137
3096.78339,983.21228
3096.78339,983.9932
3098.99563,983.9932
3101.20786,983.9932
3103.4201,983.9932
3103.4201,984.77411
3105.63233,985.55502
3107.84457,985.55502
3110.0568,986.33593
3112.26904,986.33593
3114.48128,986.33593
3114.48128,987.11685
3116.69351,987.89776
3118.90575,987.89776
3121.11798,987.89776
3121.11798,988.67867
3123.33022,988.67867
3123.33022,989.45959
3125.54245,989.45959
3127.75469,989.45959
3127.75469,990.2405
3129.96693,991.02141
3132.17916,991.02141
3132.17916,991.80232
3134.3914,991.80232
3134.3914,992.58324
3136.60363,992.58324
3136.60363,993.36415
3138.81587,993.36415
3138.81587,994.14506
3141.0281,994.14506
3141.0281,994.92598
3143.24034,994.92598
3143.24034,995.70689
3145.45257,995.70689
3145.45257,996.4878
3147.66481,996.4878
3147.66481,997.26871
3149.87705,997.26871
3152.08928,997.26871
3154.30152,997.26871
3156.51375,997.26871
3158.72599,997.26871
3160.93822,997.26871
3163.15046,997.26871
3163.15046,998.04963
3165.3627,998.04963
3165.3627,998.83054
3167.57493,998.83054
3167.57493,999.61145
3169.78717,999.61145
3169.78717,1000.39237
3171.9994,1000.39237
3171.9994,1001.17328
3174.21164,1001.17328
3174.21164,1001.95419
3176.42387,1002.7351
3176.42387,1003.51602
3178.63611,1003.51602
3178.63611,1004.29693
3180.84835,1004.29693
3180.84835,1005.07784
3183.06058,1005.07784
3183.06058,1005.85875
3185.27282,1005.85875
3185.27282,1006.63967
3187.48505,1006.63967
3187.48505,1007.42058
3189.69729,1007.42058
3189.69729,1008.20149
3191.90952,1008.20149
3191.90952,1008.98241
3191.90952,1009.76332
3194.12176,1009.76332
3196.33399,1009.76332
3196.33399,1010.54423
3198.54623,1010.54423
3198.54623,1011.32514
3200.75847,1011.32514
3200.75847,1012.10606
3202.9707,1012.10606
3202.9707,1012.88697
3205.18294,1012.88697
3205.18294,1013.66788
3207.39517,1013.66788
3209.60741,1014.4488
3211.81964,1015.22971
3214.03188,1016.01062
3214.03188,1016.79153
3216.24412,1017.57245
3216.24412,1018.35336
3216.24412,1019.13427
3218.45635,1019.91518
3220.66859,1019.91518
3222.88082,1019.91518
3222.88082,1020.6961
3225.09306,1020.6961
3225.09306,1021.47701
3227.30529,1021.47701
3227.30529,1022.25792
3229.51753,1022.25792
3229.51753,1023.03884
3231.72976,1023.03884
3231.72976,1023.81975
3233.942,1023.81975
3233.942,1024.60066
3236.15424,1024.60066
3238.36647,1025.38157
3238.36647,1026.16249
3238.36647,1026.9434
3238.36647,1027.72431
3238.36647,1028.50523
3238.36647,1029.28614
3238.36647,1030.06705
3238.36647,1030.84796
3240.57871,1030.84796
3240.57871,1031.62888
3242.79094,1031.62888
3242.79094,1032.40979
3245.00318,1033.1907
3247.21541,1033.1907
3247.21541,1033.97162
3249.42765,1033.97162
3249.42765,1034.75253
3251.63989,1034.75253
3253.85212,1034.75253
3256.06436,1034.75253
3256.06436,1035.53344
3258.27659,1035.53344
3260.48883,1035.53344
3262.70106,1035.53344
3264.9133,1036.31435
3264.9133,1037.09527
3264.9133,1037.87618
3267.12554,1037.87618
3267.12554,1038.65709
3269.33777,1038.65709
3271.55001,1038.65709
3271.55001,1039.438
3273.76224,1039.438
3275.97448,1039.438
3275.97448,1040.21892
3278.18671,1040.21892
3278.18671,1040.99983
3280.39895,1040.99983
3282.61118,1040.99983
3282.61118,1041.78074
3284.82342,1041.78074
3287.03566,1041.78074
3289.24789,1042.56166
3291.46013,1042.56166
3293.67236,1042.56166
3293.67236,1043.34257
3295.8846,1043.34257
3298.09683,1043.34257
3298.09683,1044.12348
3300.30907,1044.90439
3302.52131,1044.90439
3304.73354,1044.90439
3304.73354,1045.68531
3306.94578,1045.68531
3306.94578,1046.46622
3309.15801,1046.46622
3311.37025,1046.46622
3311.37025,1047.24713
3313.58248,1047.24713
3313.58248,1048.02805
3315.79472,1048.80896
3318.00696,1048.80896
3320.21919,1048.80896
3322.43143,1049.58987
3322.43143,1050.37078
3324.64366,1050.37078
3324.64366,1051.1517
3326.8559,1051.1517
3329.06813,1051.1517
3329.06813,1051.93261
3331.28037,1052.71352
3333.4926,1052.71352
3333.4926,1053.49443
3335.70484,1053.49443
3335.70484,1054.27535
3337.91708,1054.27535
3337.91708,1055.05626
3340.12931,1055.05626
3340.12931,1055.83717
3342.34155,1055.83717
3344.55378,1055.83717
3346.76602,1055.83717
3348.97825,1055.83717
3351.19049,1055.83717
3353.40273,1055.83717
3355.61496,1055.83717
3355.61496,1056.61809
3357.8272,1056.61809
3357.8272,1057.399
3360.03943,1058.17991
3360.03943,1058.96082
3362.25167,1058.96082
3362.25167,1059.74174
3364.4639,1059.74174
3364.4639,1060.52265
3366.67614,1060.52265
3366.67614,1061.30356
3368.88837,1062.08448
3371.10061,1062.08448
3371.10061,1062.86539
3373.31285,1062.86539
3373.31285,1063.6463
3375.52508,1063.6463
3375.52508,1064.42721
3377.73732,1065.20813
3377.73732,1065.98904
3379.94955,1065.98904
3379.94955,1066.76995
3382.16179,1066.76995
3382.16179,1067.55086
3384.37402,1067.55086
3384.37402,1068.33178
3386.58626,1068.33178
3386.58626,1069.11269
3388.7985,1069.11269
3388.7985,1069.8936
3391.01073,1069.8936
3391.01073,1070.67452
3393.22297,1070.67452
3393.22297,1071.45543
3393.22297,1072.23634
3393.22297,1073.01725
3393.22297,1073.79817
3393.22297,1074.57908
3393.22297,1075.35999
3393.22297,1076.14091
3395.4352,1076.14091
3395.4352,1076.92182
3397.64744,1076.92182
3397.64744,1077.70273
3399.85967,1077.70273
3399.85967,1078.48364
3402.07191,1078.48364
3402.07191,1079.26456
3404.28415,1079.26456
3406.49638,1079.26456
3406.49638,1080.04547
3408.70862,1080.04547
3408.70862,1080.82638
3410.92085,1080.82638
3413.13309,1080.82638
3415.34532,1080.04547
3417.55756,1079.26456
3419.76979,1078.48364
3421.98203,1079.26456
3424.19427,1080.04547
3426.4065,1080.82638
3428.61874,1080.82638
3430.83097,1080.82638
3430.83097,1080.04547
3430.83097,1079.26456
3430.83097,1078.48364
3430.83097,1077.70273
3433.04321,1077.70273
3433.04321,1076.92182
3435.25544,1076.92182
3435.25544,1076.14091
3437.46768,1076.14091
3437.46768,1075.35999
3439.67992,1075.35999
3441.89215,1075.35999
3444.10439,1075.35999
3446.31662,1075.35999
3448.52886,1075.35999
3450.74109,1075.35999
3450.74109,1074.57908
3452.95333,1074.57908
3452.95333,1073.79817
3452.95333,1073.01725
3455.16557,1073.01725
3455.16557,1072.23634
3457.3778,1072.23634
3457.3778,1071.45543
3459.59004,1071.45543
3459.59004,1070.67452
3459.59004,1069.8936
3461.80227,1069.8936
3461.80227,1069.11269
3461.80227,1068.33178
3461.80227,1067.55086
3464.01451,1066.76995
3464.01451,1065.98904
3464.01451,1065.20813
3466.22674,1065.20813
3468.43898,1065.20813
3468.43898,1064.42721
3468.43898,1063.6463
3470.65121,1063.6463
3470.65121,1062.86539
3470.65121,1062.08448
3470.65121,1061.30356
3470.65121,1060.52265
3472.86345,1060.52265
3475.07569,1060.52265
3477.28792,1059.74174
3477.28792,1058.96082
3477.28792,1058.17991
3477.28792,1057.399
3479.50016,1056.61809
3479.50016,1055.83717
3481.71239,1055.83717
3481.71239,1055.05626
3483.92463,1055.05626
3483.92463,1054.27535
3483.92463,1053.49443
3483.92463,1052.71352
3486.13686,1052.71352
3486.13686,1051.93261
3486.13686,1051.1517
3488.3491,1050.37078
3488.3491,1049.58987
3490.56134,1049.58987
3492.77357,1048.80896
3492.77357,1048.02805
3492.77357,1047.24713
3492.77357,1046.46622
3494.98581,1046.46622
3494.98581,1045.68531
3494.98581,1044.90439
3497.19804,1044.90439
3499.41028,1044.12348
3499.41028,1043.34257
3499.41028,1042.56166
3501.62251,1042.56166
3501.62251,1041.78074
3503.83475,1040.99983
3503.83475,1040.21892
3503.83475,1039.438
3506.04698,1038.65709
3508.25922,1038.65709
3508.25922,1037.87618
3508.25922,1037.09527
3510.47146,1037.09527
3510.47146,1036.31435
3510.47146,1035.53344
3510.47146,1034.75253
3512.68369,1034.75253
3514.89593,1034.75253
3514.89593,1033.97162
3514.89593,1033.1907
3517.10816,1033.1907
3519.3204,1032.40979
3519.3204,1031.62888
3519.3204,1030.84796
3521.53263,1030.84796
3521.53263,1030.06705
3521.53263,1029.28614
3523.74487,1029.28614
3525.95711,1029.28614
3525.95711,1028.50523
3525.95711,1027.72431
3528.16934,1027.72431
3528.16934,1026.9434
3530.38158,1026.9434
3530.38158,1026.16249
3532.59381,1026.16249
3532.59381,1025.38157
3534.80605,1025.38157
3537.01828,1024.60066
3537.01828,1023.81975
3537.01828,1023.03884
3539.23052,1023.03884
3539.23052,1022.25792
3541.44276,1022.25792
3541.44276,1021.47701
3543.65499,1021.47701
3543.65499,1020.6961
3545.86723,1020.6961
3545.86723,1019.91518
3548.07946,1019.91518
3548.07946,1019.13427
3550.2917,1019.13427
3550.2917,1018.35336
3552.50393,1018.35336
3552.50393,1017.57245
3554.71617,1017.57245
3554.71617,1016.79153
3556.9284,1016.79153
3556.9284,1016.01062
3559.14064,1016.01062
3559.14064,1015.22971
3561.35288,1015.22971
3561.35288,1014.4488
3561.35288,1013.66788
3563.56511,1012.88697
3565.77735,1012.88697
3565.77735,1012.10606
3567.98958,1012.10606
3570.20182,1011.32514
3570.20182,1010.54423
3572.41405,1010.54423
3572.41405,1009.76332
3572.41405,1008.98241
3572.41405,1008.20149
3574.62629,1008.20149
3576.83853,1008.20149
3576.83853,1007.42058
3579.05076,1006.63967
3579.05076,1005.85875
3581.263,1005.85875
3583.47523,1005.07784
3583.47523,1004.29693
3585.68747,1004.29693
3585.68747,1003.51602
3587.8997,1003.51602
3587.8997,1002.7351
3590.11194,1001.95419
3592.32417,1001.95419
3592.32417,1001.17328
3594.53641,1001.17328
3594.53641,1000.39237
3596.74865,999.61145
3596.74865,998.83054
3598.96088,998.83054
3598.96088,998.04963
3601.17312,998.04963
3601.17312,997.26871
3603.38535,996.4878
3605.59759,996.4878
3605.59759,995.70689
3607.80982,995.70689
3607.80982,994.92598
3610.02206,994.14506
3610.02206,993.36415
3612.2343,993.36415
3612.2343,992.58324
3612.2343,991.80232
3612.2343,991.02141
3612.2343,990.2405
3612.2343,989.45959
3612.2343,988.67867
3612.2343,987.89776
3614.44653,987.89776
3614.44653,987.11685
3616.65877,987.11685
3618.871,986.33593
3621.08324,986.33593
3621.08324,985.55502
3623.29547,985.55502
3623.29547,984.77411
3625.50771,983.9932
3627.71995,983.9932
3627.71995,983.21228
3629.93218,983.21228
3632.14442,983.21228
3634.35665,982.43137
3636.56889,981.65046
3636.56889,980.86955
3638.78112,980.86955
3640.99336,980.86955
3640.99336,980.08863
3643.20559,980.08863
3645.41783,980.08863
3645.41783,979.30772
3647.63007,979.30772
3647.63007,978.52681
3649.8423,978.52681
3652.05454,978.52681
3652.05454,977.74589
3654.26677,977.74589
3656.47901,977.74589
3658.69124,977.74589
3658.69124,976.96498
3660.90348,976.96498
3663.11572,976.96498
3663.11572,976.18407
3665.32795,976.18407
3667.54019,976.18407
3669.75242,976.96498
3671.96466,977.74589
3674.17689,978.52681
3676.38913,977.74589
3678.60137,977.74589
3680.8136,976.96498
3683.02584,976.96498
3685.23807,976.96498
3687.45031,976.96498
3689.66254,976.18407
3691.87478,976.96498
3694.08701,976.18407
3696.29925,975.40316
3698.51149,975.40316
3700.72372,975.40316
3702.93596,975.40316
3705.14819,975.40316
3707.36043,975.40316
3709.57266,974.62224
3711.7849,973.84133
3713.99714,974.62224
3716.20937,974.62224
3718.42161,974.62224
3720.63384,974.62224
3722.84608,974.62224
3725.05831,974.62224
3727.27055,974.62224
3729.48278,974.62224
3731.69502,973.84133
3733.90726,973.06042
3736.11949,972.2795
3738.33173,972.2795
3740.54396,972.2795
3742.7562,972.2795
3744.96843,972.2795
3747.18067,971.49859
3749.39291,971.49859
3751.60514,971.49859
3753.81738,971.49859
3756.02961,971.49859
3758.24185,971.49859
3760.45408,971.49859
3762.66632,972.2795
3764.87856,973.06042
3767.09079,973.84133
3769.30303,973.84133
3771.51526,973.84133
3773.7275,973.84133
3775.93973,973.84133
3778.15197,973.84133
3780.3642,973.06042
3782.57644,972.2795
3784.78868,971.49859
3787.00091,970.71768
3789.21315,970.71768
3791.42538,970.71768
3793.63762,970.71768
3795.84985,970.71768
3798.06209,970.71768
3800.27433,970.71768
3802.48656,970.71768
3804.6988,970.71768
3806.91103,970.71768
3809.12327,970.71768
3811.3355,970.71768
3813.54774,970.71768
3815.75998,970.71768
3817.97221,970.71768
3820.18445,970.71768
3822.39668,970.71768
3824.60892,970.71768
3826.82115,970.71768
3829.03339,970.71768
3831.24562,970.71768
3833.45786,970.71768
3835.6701,970.71768
3837.88233,970.71768
3840.09457,970.71768
3842.3068,970.71768
3844.51904,970.71768
3846.73127,970.71768
3848.94351,971.49859
3851.15575,972.2795
3853.36798,973.06042
3855.58022,973.06042
3857.79245,973.06042
3860.00469,973.06042
3862.21692,973.06042
3864.42916,972.2795
3866.64139,973.06042
3868.85363,973.84133
3871.06587,973.84133
3873.2781,973.84133
3875.49034,973.84133
3877.70257,973.84133
3879.91481,973.84133
3882.12704,973.06042
3884.33928,972.2795
3886.55152,971.49859
3888.76375,971.49859
3890.97599,971.49859
3893.18822,971.49859
3895.40046,971.49859
3897.61269,971.49859
3899.82493,971.49859
3902.03717,971.49859
3904.2494,971.49859
3906.46164,971.49859
3908.67387,971.49859
3910.88611,972.2795
3913.09834,973.06042
3915.31058,973.84133
3917.52281,973.84133
3919.73505,973.06042
3921.94729,973.84133
3924.15952,974.62224
3926.37176,974.62224
3928.58399,974.62224
3930.79623,973.84133
3933.00846,973.06042
3935.2207,972.2795
3937.43294,972.2795
3939.64517,972.2795
3941.85741,972.2795
3944.06964,972.2795
3946.28188,972.2795
3948.49411,973.06042
3950.70635,973.84133
