Raman Shift,Intensity
93.98767,8.237143
94.46979,8.029509
94.9519,7.737546
95.43402,7.829898
95.91614,8.351446
96.39825,9.051748
96.88037,9.702078
97.36249,10.2972
97.8446,10.66178
98.32672,10.49976
98.80884,9.86826
99.29095,9.718356
99.77307,10.20213
100.2552,11.06645
100.7373,11.75118
101.2194,12.2059
101.7015,12.65317
102.1837,13.29108
102.6658,14.21013
103.1479,14.8637
103.63,15.08689
104.1121,14.98089
104.5942,15.10409
105.0764,15.41722
105.5585,16.01196
106.0406,17.05062
106.5227,19.013
107.0048,20.55762
107.4869,21.34694
107.969,21.30999
108.4512,21.44733
108.9333,21.70967
109.4154,22.17364
109.8975,22.91346
110.3796,24.3639
110.8617,25.68328
111.3439,26.65713
111.826,27.14116
112.3081,27.77668
112.7902,28.62952
113.2723,29.65437
113.7544,30.77546
114.2366,31.99937
114.7187,33.30389
115.2008,34.69275
115.6829,36.23768
116.165,37.70801
116.6471,39.07422
117.1293,40.33876
117.6114,41.52246
118.0935,42.24902
118.5756,43.12003
119.0577,44.63117
119.5398,47.50457
120.022,50.12868
120.5041,51.582
120.9862,52.05416
121.4683,52.31544
121.9504,52.25673
122.4325,52.39227
122.9147,53.34423
123.3968,56.21246
123.8789,59.18477
124.361,60.38704
124.8431,59.95793
125.3252,59.33819
125.8074,59.42993
126.2895,60.11828
126.7716,61.18643
127.2537,62.80075
127.7358,64.66953
128.2179,66.34499
128.7001,67.81801
129.1822,69.14037
129.6643,70.10038
130.1464,70.8528
130.6285,72.04028
131.1106,74.43789
131.5928,77.55644
132.0749,79.67412
132.557,80.55222
133.0391,80.97678
133.5212,81.91332
134.0033,83.22855
134.4855,84.53628
134.9676,85.856
135.4497,87.47337
135.9318,89.48763
136.4139,92.1267
136.896,94.84282
137.3782,96.43729
137.8603,96.70317
138.3424,97.06941
138.8245,98.61517
139.3066,101.6078
139.7887,103.7049
140.2709,104.5213
140.753,104.3994
141.2351,104.3904
141.7172,104.401
142.1993,104.7059
142.6814,105.3551
143.1636,106.0539
143.6457,107.9739
144.1278,111.8008
144.6099,117.2057
145.092,121.2024
145.5741,123.1953
146.0563,124.4929
146.5384,125.9879
147.0205,127.3566
147.5026,129.4513
147.9847,132.54
148.4668,136.6436
148.949,140.8404
149.4311,144.5287
149.9132,148.6669
150.3953,154.1072
150.8774,162.2734
151.3595,170.1804
151.8417,176.9876
152.3238,182.336
152.8059,188.7064
153.288,196.7859
153.7701,205.6349
154.2522,214.3522
154.7344,222.2843
155.2165,230.5453
155.6986,239.7206
156.1807,250.4684
156.6628,260.0699
157.1449,266.4225
157.6271,271.684
158.1092,278.83
158.5913,290.1815
159.0734,302.0961
159.5555,312.9313
160.0376,321.8743
160.5198,331.6481
161.0019,342.563
161.484,354.8354
161.9661,368.5862
162.4482,385.4716
162.9303,402.7499
163.4125,418.5455
163.8946,431.4061
164.3767,445.4323
164.8588,462.7618
165.3409,482.5673
165.823,503.2966
166.3052,522.6036
166.7873,543.425
167.2694,568.1603
167.7515,598.1415
168.2336,630.5695
168.7157,665.6229
169.1978,702.0066
169.68,736.6563
170.1621,768.9109
170.6442,798.0024
171.1263,823.9635
171.6084,848.5361
172.0905,867.5131
172.5727,878.5498
173.0548,881.368
173.5369,875.0276
174.019,858.5497
174.5011,832.7336
174.9832,797.9984
175.4654,750.6169
175.9475,698.69
176.4296,649.3622
176.9117,602.3094
177.3938,556.7449
177.8759,510.0828
178.3581,464.4757
178.8402,424.3895
179.3223,392.6502
179.8044,366.35
180.2865,342.1136
180.7686,320.0308
181.2508,299.6639
181.7329,280.5995
182.215,262.9172
182.6971,247.0528
183.1792,233.4807
183.6613,221.7323
184.1435,211.4892
184.6256,202.6799
185.1077,194.7398
185.5898,186.8991
186.0719,179.4008
186.554,172.6524
187.0362,167.0285
187.5183,162.2398
188.0004,157.7737
188.4825,153.6081
188.9646,149.6016
189.4467,145.4376
189.9289,141.1846
190.411,137.4395
190.8931,134.5135
191.3752,132.2422
191.8573,129.8763
192.3394,127.3468
192.8216,124.952
193.3037,123.2401
193.7858,122.1848
194.2679,120.7719
194.75,118.3738
195.2321,115.2301
195.7143,112.8095
196.1964,111.1875
196.6785,110.0943
197.1606,109.4418
197.6427,109.2765
198.1248,108.6672
198.607,107.0481
199.0891,104.5134
199.5712,102.4953
200.0533,101.0277
200.5354,99.99538
201.0175,99.41845
201.4997,99.38406
201.9818,99.18372
202.4639,98.53941
202.946,97.45116
203.4281,96.20958
203.9102,94.67117
204.3924,93.2416
204.8745,92.5671
205.3566,92.7638
205.8387,93.18725
206.3208,93.81088
206.8029,94.69417
207.2851,94.59102
207.7672,93.14455
208.2493,91.22584
208.7314,90.2031
209.2135,90.28841
209.6956,90.54831
210.1778,90.72812
210.6599,90.85143
211.142,90.65013
211.6241,89.99657
212.1062,89.17192
212.5883,88.59856
213.0705,88.2943
213.5526,88.20067
214.0347,88.44713
214.5168,89.17982
214.9989,89.13652
215.481,87.88686
215.9632,86.27567
216.4453,85.77442
216.9274,86.82088
217.4095,87.91948
217.8916,88.53625
218.3737,88.56973
218.8559,88.73064
219.338,89.10502
219.8201,89.5284
220.3022,89.7326
220.7843,89.6507
221.2664,89.48898
221.7486,89.28684
222.2307,89.02454
222.7128,88.84312
223.1949,88.71431
223.677,88.69234
224.1591,88.94547
224.6413,89.81649
225.1234,90.29146
225.6055,89.87077
226.0876,88.21735
226.5697,87.4095
227.0518,87.77714
227.534,88.73347
228.0161,89.41634
228.4982,89.78865
228.9803,89.95824
229.4624,89.88248
229.9445,89.4576
230.4267,89.33896
230.9088,89.68349
231.3909,90.21149
231.873,90.47527
232.3551,90.13488
232.8372,90.14926
233.3194,90.98974
233.8015,92.9796
234.2836,93.9522
234.7657,93.3657
235.2478,92.20564
235.7299,91.72743
236.2121,92.06835
236.6942,92.88097
237.1763,94.22254
237.6584,96.21651
238.1405,97.82109
238.6226,98.82553
239.1048,99.58227
239.5869,100.5206
240.069,101.8027
240.5511,102.9702
241.0332,103.892
241.5153,104.5273
241.9975,105.219
242.4796,105.8603
242.9617,106.6425
243.4438,107.8573
243.9259,109.9686
244.408,111.6415
244.8902,112.3349
245.3723,111.9278
245.8544,112.506
246.3365,114.5849
246.8186,117.1551
247.3007,119.2342
247.7829,120.5695
248.265,121.8893
248.7471,123.2842
249.2292,124.7583
249.7113,126.4189
250.1934,128.277
250.6756,130.3224
251.1577,132.5734
251.6398,135.0533
252.1219,137.6963
252.604,140.5563
253.0861,143.5964
253.5683,146.5558
254.0504,149.4506
254.5325,152.258
255.0146,154.8835
255.4967,157.0624
255.9788,159.7277
256.4609,163.1521
256.9431,167.2128
257.4252,171.0609
257.9073,174.3382
258.3894,177.9392
258.8715,182.6849
259.3536,189.3595
259.8358,195.1963
260.3179,199.6335
260.8,203.0026
261.2821,206.9835
261.7642,211.767
262.2463,216.9139
262.7285,221.9499
263.2106,226.3096
263.6927,232.3831
264.1748,241.0054
264.6569,251.3213
265.139,260.4986
265.6212,267.9885
266.1033,275.3239
266.5854,283.3714
267.0675,291.9521
267.5496,301.3559
268.0317,311.4733
268.5139,322.4472
268.996,334.4509
269.4781,347.579
269.9602,361.3842
270.4423,375.7082
270.9244,390.7318
271.4066,405.1724
271.8887,418.4763
272.3708,431.7142
272.8529,446.729
273.335,463.6729
273.8171,481.7603
274.2993,500.8556
274.7814,520.6508
275.2635,542.1588
275.7456,565.7031
276.2277,590.3815
276.7098,614.1602
277.192,636.7488
277.6741,659.9761
278.1562,684.3023
278.6383,710.0424
279.1204,737.3566
279.6025,767.0783
280.0847,796.7692
280.5668,822.0161
281.0489,842.1756
281.531,865.2177
282.0131,895.0573
282.4952,930.6532
282.9774,962.1829
283.4595,989.1326
283.9416,1014.85
284.4237,1042.851
284.9058,1073.13
285.3879,1103.83
285.8701,1134.394
286.3522,1165.039
286.8343,1196.696
287.3164,1229.116
287.7985,1262.222
288.2806,1297.148
288.7628,1333.421
289.2449,1366.266
289.727,1394.449
290.2091,1418.775
290.6912,1441.304
291.1733,1461.669
291.6555,1479.68
292.1376,1496.245
292.6197,1510.609
293.1018,1519.507
293.5839,1522.761
294.066,1519.635
294.5482,1508.301
295.0303,1488.955
295.5124,1463.612
295.9945,1432.902
296.4766,1396.89
296.9587,1356.132
297.4409,1310.167
297.923,1260.26
298.4051,1207.392
298.8872,1152.271
299.3693,1096.541
299.8514,1041.397
300.3336,986.7028
300.8157,931.8546
301.2978,876.984
301.7799,823.9103
302.262,775.1776
302.7441,730.3483
303.2263,688.4713
303.7084,649.1954
304.1905,612.3287
304.6726,576.6439
305.1547,542.4056
305.6368,510.4394
306.119,481.797
306.6011,456.0071
307.0832,433.2539
307.5653,415.3657
308.0474,398.8728
308.5295,380.4683
309.0117,360.3128
309.4938,341.2182
309.9759,324.9956
310.458,310.7399
310.9401,297.8618
311.4222,286.4248
311.9044,275.7979
312.3865,265.874
312.8686,256.6028
313.3507,247.5808
313.8328,238.4978
314.3149,229.6873
314.7971,221.4792
315.2792,213.5646
315.7613,206.6909
316.2434,202.0903
316.7255,198.8053
317.2076,194.7562
317.6898,187.9698
318.1719,181.0139
318.654,175.5007
319.1361,172.0083
319.6182,168.711
320.1003,164.6936
320.5825,160.5819
321.0646,157.236
321.5467,155.4279
322.0288,153.9418
322.5109,152.4268
322.993,150.8875
323.4752,149.1552
323.9573,147.2754
324.4394,145.1525
324.9215,142.7
325.4036,138.9452
325.8857,135.8715
326.3679,134.2262
326.85,133.9255
327.3321,133.1668
327.8142,131.6738
328.2963,129.7784
328.7784,127.6718
329.2606,124.0434
329.7427,121.8357
330.2248,122.0093
330.7069,123.8392
331.189,124.4589
331.6711,122.789
332.1533,121.0755
332.6354,120.2928
333.1175,121.0285
333.5996,121.402
334.0817,121.3738
334.5638,120.9968
335.046,120.3304
335.5281,119.1732
336.0102,118.0831
336.4923,117.227
336.9744,116.6192
337.4565,116.1908
337.9387,116.1854
338.4208,116.0305
338.9029,114.8993
339.385,112.4848
339.8671,110.2775
340.3492,108.6244
340.8313,107.4676
341.3134,106.4734
341.7956,105.7188
342.2777,104.8641
342.7598,103.603
343.2419,101.952
343.724,100.0532
344.2061,97.85966
344.6883,95.52241
345.1704,93.41516
345.6525,91.51428
346.1346,89.9352
346.6167,88.93138
347.0988,88.37374
347.581,87.62491
348.0631,86.66262
348.5452,85.36668
349.0273,83.10408
349.5094,80.09364
349.9915,77.8372
350.4737,77.66932
350.9558,78.66846
351.4379,78.84615
351.92,78.15869
352.4021,76.95652
352.8842,75.07009
353.3664,72.90695
353.8485,71.41862
354.3306,71.41339
354.8127,71.84549
355.2948,71.47464
355.7769,70.39543
356.2591,69.24122
356.7412,68.19782
357.2233,67.41366
357.7054,67.14158
358.1875,67.76656
358.6696,68.31012
359.1518,67.96096
359.6339,66.98236
360.116,66.0179
360.5981,65.22359
361.0802,64.64715
361.5623,64.3737
362.0445,64.47382
362.5266,64.58981
363.0087,64.64313
363.4908,64.60431
363.9729,64.4348
364.455,64.17345
364.9372,63.73209
365.4193,62.91532
365.9014,61.71198
366.3835,60.86897
366.8656,60.71376
367.3477,60.87492
367.8299,61.07568
368.312,61.66056
368.7941,61.85302
369.2762,61.30903
369.7583,60.22786
370.2404,59.50846
370.7226,59.37538
371.2047,59.39678
371.6868,59.4385
372.1689,59.6406
372.651,59.50773
373.1331,58.74458
373.6153,57.80992
374.0974,57.52372
374.5795,58.27087
375.0616,58.8908
375.5437,59.02222
376.0258,58.65691
376.508,58.32468
376.9901,58.09673
377.4722,57.76603
377.9543,56.95871
378.4364,55.53518
378.9185,54.68304
379.4007,54.75482
379.8828,55.46419
380.3649,55.99339
380.847,56.32883
381.3291,56.56458
381.8112,56.7651
382.2934,56.92299
382.7755,56.9756
383.2576,56.92125
383.7397,56.74984
384.2218,56.35903
384.7039,55.79549
385.1861,55.33588
385.6682,55.07711
386.1503,55.0127
386.6324,55.26606
387.1145,55.84267
387.5966,56.24929
388.0788,55.91262
388.5609,55.13716
389.043,54.45098
389.5251,53.93793
390.0072,53.65139
390.4893,53.77959
390.9715,54.21535
391.4536,54.5686
391.9357,54.75972
392.4178,54.69219
392.8999,54.15383
393.382,52.86738
393.8642,51.89694
394.3463,52.09768
394.8284,52.87775
395.3105,53.31939
395.7926,52.80143
396.2747,52.20589
396.7569,51.85455
397.239,51.77055
397.7211,51.7782
398.2032,51.92258
398.6853,52.09985
399.1674,52.23204
399.6496,52.44072
400.1317,52.44858
400.6138,52.10386
401.0959,51.52452
401.578,51.11816
402.0602,50.92966
402.5423,50.86201
403.0244,50.92095
403.5065,51.20775
403.9886,51.24392
404.4707,50.89915
404.9529,50.42925
405.435,50.15375
405.9171,50.05882
406.3992,50.2476
406.8813,50.96428
407.3634,52.03187
407.8456,52.07313
408.3277,50.86395
408.8098,49.55759
409.2919,49.19566
409.774,49.71394
410.2561,50.08189
410.7383,50.1591
411.2204,50.04235
411.7025,49.73832
412.1846,49.29895
412.6667,49.15998
413.1488,49.85731
413.631,50.95786
414.1131,51.5385
414.5952,51.55041
415.0773,51.34205
415.5594,51.17889
416.0415,51.02158
416.5237,50.78087
417.0058,50.28127
417.4879,49.85262
417.97,49.83492
418.4521,50.15289
418.9342,50.49774
419.4164,50.96999
419.8985,51.23996
420.3806,50.933
420.8627,49.74338
421.3448,48.7872
421.8269,48.54636
422.3091,48.77911
422.7912,49.14217
423.2733,49.9893
423.7554,50.51975
424.2375,50.27505
424.7196,49.23352
425.2018,48.6506
425.6839,49.10745
426.166,49.72723
426.6481,50.00081
427.1302,49.65078
427.6123,49.39946
428.0945,49.31712
428.5766,49.32658
429.0587,49.2547
429.5408,49.10565
430.0229,48.86109
430.505,48.43917
430.9872,47.82562
431.4693,47.5678
431.9514,47.74739
432.4335,48.07778
432.9156,48.23291
433.3977,48.20554
433.8799,48.33781
434.362,48.77166
434.8441,49.32171
435.3262,49.57497
435.8083,49.53845
436.2904,49.35535
436.7726,49.06233
437.2547,48.69427
437.7368,48.21737
438.2189,47.57514
438.701,47.24726
439.1831,48.16344
439.6652,49.68776
440.1473,50.57769
440.6295,49.7134
441.1116,48.58286
441.5937,48.52236
442.0758,49.33541
442.5579,50.02251
443.04,50.04334
443.5222,49.76529
444.0043,49.42097
444.4864,48.98941
444.9685,48.66178
445.4506,48.63692
445.9327,48.71725
446.4149,48.61864
446.897,47.81584
447.3791,47.3082
447.8612,47.49572
448.3433,48.40024
448.8254,49.03184
449.3076,49.28731
449.7897,49.36047
450.2718,49.36636
450.7539,49.3527
451.236,49.13802
451.7181,48.59551
452.2003,47.93388
452.6824,47.58899
453.1645,47.61157
453.6466,47.74327
454.1287,47.90525
454.6108,48.10074
455.093,48.41489
455.5751,48.89848
456.0572,49.20507
456.5393,48.80396
457.0214,47.86335
457.5035,47.31556
457.9857,47.38968
458.4678,47.76842
458.9499,48.14826
459.432,48.4781
459.9141,48.57393
460.3962,48.07984
460.8784,47.43292
461.3605,47.18905
461.8426,47.36866
462.3247,47.5779
462.8068,47.54096
463.2889,47.40824
463.7711,47.3408
464.2532,47.43888
464.7353,47.53022
465.2174,47.47193
465.6995,47.35384
466.1816,47.38996
466.6638,47.90471
467.1459,48.33761
467.628,48.46557
468.1101,48.21488
468.5922,47.93069
469.0743,47.36024
469.5565,46.94733
470.0386,47.12817
470.5207,48.38396
471.0028,49.21664
471.4849,49.32941
471.967,48.98952
472.4492,49.00381
472.9313,49.497
473.4134,49.91781
473.8955,50.01633
474.3776,49.80294
474.8597,49.46008
475.3419,48.95263
475.824,48.49266
476.3061,48.32181
476.7882,48.39672
477.2703,48.52626
477.7524,48.68147
478.2346,48.84546
478.7167,49.00124
479.1988,49.14878
479.6809,49.28804
480.163,49.52717
480.6451,49.69563
481.1273,49.58564
481.6094,49.1755
482.0915,48.70377
482.5736,48.1441
483.0557,47.66381
483.5378,47.42133
484.02,47.56915
484.5021,47.82328
484.9842,48.18104
485.4663,48.59315
485.9484,48.92245
486.4305,49.21301
486.9127,49.35052
487.3948,49.23724
487.8769,48.81053
488.359,48.57709
488.8411,48.56626
489.3232,48.71813
489.8054,49.01485
490.2875,49.5166
490.7696,49.98403
491.2517,50.49024
491.7338,50.85007
492.2159,50.44794
492.6981,49.21337
493.1802,48.18921
493.6623,47.87114
494.1444,48.15222
494.6265,48.79709
495.1086,49.82754
495.5908,50.66189
496.0729,50.65777
496.555,50.11663
497.0371,49.6115
497.5192,49.19938
498.0013,49.00919
498.4835,49.49207
498.9656,50.27094
499.4477,50.55716
499.9298,49.37059
500.4119,48.13035
500.894,47.72975
501.3762,48.16039
501.8583,48.50685
502.3404,48.34117
502.8225,48.11656
503.3046,48.11697
503.7867,48.48152
504.2689,48.9072
504.751,49.69222
505.2331,50.40287
505.7152,50.28236
506.1973,48.67841
506.6794,47.58438
507.1616,47.58732
507.6437,48.52206
508.1258,49.23415
508.6079,49.70632
509.09,50.02389
509.5721,50.30301
510.0543,50.51613
510.5364,50.26122
511.0185,49.42255
511.5006,48.52886
511.9827,48.16743
512.4648,48.27475
512.947,48.70177
513.4291,49.74751
513.9112,50.69513
514.3933,50.4788
514.8754,49.4128
515.3575,48.64895
515.8397,49.27515
516.3218,50.11631
516.8039,50.21353
517.286,49.33765
517.7681,48.63341
518.2502,48.54994
518.7324,48.77522
519.2145,49.03012
519.6966,49.47214
520.1787,49.69781
520.6608,49.65221
521.1429,49.37275
521.6251,48.89054
522.1072,47.88314
522.5893,47.26201
523.0714,47.38738
523.5535,48.25353
524.0356,49.27439
524.5178,50.59727
524.9999,51.60131
525.482,51.48362
525.9641,50.39209
526.4462,49.8834
526.9283,50.29074
527.4105,50.88552
527.8926,50.32312
528.3747,49.04891
528.8568,48.55638
529.3389,50.51408
529.821,52.79266
530.3032,52.84017
530.7853,51.06571
531.2674,49.48791
531.7495,49.27143
532.2316,49.63457
532.7137,50.09679
533.1959,50.65229
533.678,51.07304
534.1601,51.31953
534.6422,51.40065
535.1243,51.32692
535.6064,51.02805
536.0886,50.65426
536.5707,50.06779
537.0528,49.43003
537.5349,49.31823
538.017,49.96303
538.4991,50.54848
538.9813,50.68931
539.4634,50.42172
539.9455,50.49782
540.4276,50.98901
540.9097,51.42358
541.3918,51.15829
541.874,50.42754
542.3561,50.25285
542.8382,50.91647
543.3203,51.74467
543.8024,51.94808
544.2845,51.71415
544.7667,51.46025
545.2488,51.39539
545.7309,51.35551
546.213,51.12835
546.6951,50.78833
547.1772,50.69296
547.6594,51.44895
548.1415,52.12435
548.6236,52.13223
549.1057,51.17691
549.5878,50.43242
550.0699,49.93138
550.5521,49.70839
551.0342,49.8283
551.5163,50.49375
551.9984,51.05695
552.4805,51.41858
552.9626,51.67419
553.4448,52.12068
553.9269,52.82629
554.409,53.2255
554.8911,53.05146
555.3732,52.41006
555.8553,51.45759
556.3375,50.21267
556.8196,49.36389
557.3017,49.82212
557.7838,50.92363
558.2659,51.54866
558.748,51.49593
559.2302,51.3131
559.7123,51.48026
560.1944,51.74121
560.6765,51.76474
561.1586,51.12024
561.6407,50.57507
562.1229,50.43351
562.605,50.58532
563.0871,50.70232
563.5692,50.38696
564.0513,50.41595
564.5334,51.27185
565.0156,53.01461
565.4977,53.67393
565.9798,52.82082
566.4619,51.66666
566.944,51.06911
567.4261,51.07349
567.9083,51.00089
568.3904,50.76259
568.8725,50.5787
569.3546,50.87936
569.8367,51.53439
570.3188,51.9712
570.801,51.99006
571.2831,51.7259
571.7652,51.07117
572.2473,50.20864
572.7294,49.79025
573.2115,50.64922
573.6937,51.67274
574.1758,52.10008
574.6579,51.86787
575.14,51.52741
575.6221,51.01803
576.1042,50.60999
576.5864,50.52824
577.0685,51.30109
577.5506,51.41691
578.0327,50.41398
578.5148,49.08928
578.9969,48.54514
579.4791,48.99662
579.9612,49.47219
580.4433,49.84259
580.9254,50.05966
581.4075,49.80923
581.8896,49.10051
582.3718,48.70546
582.8539,49.37547
583.336,50.55957
583.8181,51.01237
584.3002,50.748
584.7823,50.40416
585.2645,50.55309
585.7466,50.80765
586.2287,50.70121
586.7108,50.00264
587.1929,49.45302
587.675,49.55712
588.1571,49.91117
588.6392,50.04859
589.1213,49.53747
589.6035,49.24159
590.0856,49.38909
590.5677,49.80299
591.0498,49.99442
591.5319,49.88885
592.014,49.72035
592.4962,49.52108
592.9783,49.31384
593.4604,49.3942
593.9425,49.81229
594.4246,50.08308
594.9067,49.57558
595.3889,48.62802
595.871,48.34984
596.3531,48.89201
596.8352,49.51202
597.3173,49.5604
597.7994,49.24946
598.2816,48.86879
598.7637,48.35792
599.2458,48.01876
599.7279,48.17254
600.21,48.58019
600.6921,48.78753
601.1743,48.22517
601.6564,47.97857
602.1385,48.65251
602.6206,50.03916
603.1027,50.34612
603.5848,48.99994
604.067,47.65643
604.5491,47.18234
605.0312,47.60019
605.5133,47.69039
605.9954,47.38831
606.4775,47.09025
606.9597,47.28177
607.4418,47.80375
607.9239,48.07013
608.406,47.90664
608.8881,47.7628
609.3702,48.339
609.8524,49.20576
610.3345,49.61718
610.8166,48.81277
611.2987,47.97413
611.7808,47.72317
612.2629,47.86929
612.7451,47.83259
613.2272,46.96284
613.7093,46.46345
614.1914,46.93567
614.6735,48.39127
615.1556,48.94423
615.6378,48.22919
616.1199,47.34097
616.602,47.03323
617.0841,47.32149
617.5662,47.19801
618.0483,46.55274
618.5305,45.90783
619.0126,45.74771
619.4947,46.03991
619.9768,46.81968
620.4589,48.38563
620.941,49.68613
621.4232,49.56206
621.9053,48.53371
622.3874,47.56286
622.8695,46.82439
623.3516,46.41619
623.8337,46.56084
624.3159,47.12072
624.798,47.4685
625.2801,47.46472
625.7622,47.33052
626.2443,47.10299
626.7264,46.77665
627.2086,46.41637
627.6907,45.89053
628.1728,45.68623
628.6549,46.46016
629.137,48.06377
629.6191,48.87821
630.1013,48.75224
630.5834,48.17001
631.0655,47.24204
631.5476,46.30091
632.0297,46.09537
632.5118,47.16918
632.994,48.25261
633.4761,48.36805
633.9582,47.91594
634.4403,47.57391
634.9224,47.64646
635.4045,47.74968
635.8867,47.87728
636.3688,47.97234
636.8509,47.7546
637.333,46.87407
637.8151,46.27145
638.2972,46.32615
638.7794,47.00645
639.2615,47.93598
639.7436,49.24946
640.2257,50.00023
640.7078,48.97065
641.1899,46.8076
641.6721,45.68852
642.1542,45.80967
642.6363,46.30627
643.1184,46.5815
643.6005,46.71474
644.0826,46.79982
644.5648,46.86028
645.0469,46.87739
645.529,46.8607
646.0111,46.792
646.4932,46.64431
646.9753,46.17242
647.4575,45.93653
647.9396,46.0773
648.4217,46.47879
648.9038,46.78994
649.3859,46.97158
649.868,47.23408
650.3502,47.73472
650.8323,48.35065
651.3144,48.63365
651.7965,48.59234
652.2786,48.36689
652.7607,47.7986
653.2429,47.2178
653.725,47.19085
654.2071,47.74678
654.6892,48.30819
655.1713,48.74699
655.6534,48.93318
656.1356,48.66749
656.6177,47.5281
657.0998,46.91421
657.5819,47.43103
658.064,48.30505
658.5461,48.82799
659.0283,48.89657
659.5104,48.91391
659.9925,48.91076
660.4746,48.88216
660.9567,48.72459
661.4388,48.45916
661.921,48.52752
662.4031,49.28913
662.8852,50.18131
663.3673,50.25076
663.8494,49.70478
664.3315,49.22522
664.8137,49.38005
665.2958,49.53636
665.7779,49.141
666.26,48.27349
666.7421,47.70544
667.2242,47.79007
667.7064,48.06954
668.1885,48.31858
668.6706,48.49944
669.1527,49.02476
669.6348,50.11752
670.1169,51.11974
670.5991,51.59274
671.0812,51.54396
671.5633,50.91961
672.0454,49.5827
672.5275,48.46932
673.0096,49.05378
673.4918,50.53606
673.9739,51.2748
674.456,50.57449
674.9381,49.85579
675.4202,50.17248
675.9023,51.02826
676.3845,51.70797
676.8666,52.05157
677.3487,52.17352
677.8308,51.82058
678.3129,51.30663
678.795,51.40231
679.2772,52.40709
679.7593,53.25419
680.2414,53.61091
680.7235,53.59483
681.2056,53.59127
681.6877,53.60271
682.1699,53.7399
682.652,54.278
683.1341,54.89144
683.6162,54.93344
684.0983,54.4596
684.5804,54.06394
685.0626,54.05962
685.5447,54.2976
686.0268,54.71986
686.5089,55.35181
686.991,55.9542
687.4731,56.6101
687.9553,57.13196
688.4374,57.37787
688.9195,57.22922
689.4016,57.1609
689.8837,57.15164
690.3658,57.27256
690.848,57.71614
691.3301,58.41369
691.8122,58.84664
692.2943,58.8341
692.7764,58.81412
693.2585,59.10278
693.7407,59.76852
694.2228,60.96859
694.7049,63.46376
695.187,65.60097
695.6691,66.26617
696.1512,66.08646
696.6334,66.37951
697.1155,67.58076
697.5976,68.94357
698.0797,70.23817
698.5618,71.61095
699.0439,73.80028
699.5261,77.01094
700.0082,79.89449
700.4903,81.54948
700.9724,82.58292
701.4545,84.89248
701.9366,88.35957
702.4188,92.02036
702.9009,95.35866
703.383,98.52458
703.8651,101.4213
704.3472,104.0637
704.8293,107.4314
705.3115,111.8113
705.7936,117.0877
706.2757,123.3914
706.7578,131.0325
707.2399,138.3558
707.722,145.3144
708.2042,152.1342
708.6863,158.6629
709.1684,164.9388
709.6505,172.4476
710.1326,181.4733
710.6147,190.8614
711.0969,199.2486
711.579,207.0778
712.0611,215.2289
712.5432,223.8385
713.0253,233.1579
713.5074,243.9931
713.9896,255.3098
714.4717,265.8038
714.9538,273.9468
715.4359,282.656
715.918,292.1088
716.4001,302.2663
716.8823,313.4953
717.3644,326.1774
717.8465,338.2115
718.3286,349.3337
718.8107,359.1375
719.2928,365.8434
719.775,369.9452
720.2571,373.9491
720.7392,380.8001
721.2213,386.5692
721.7034,387.33
722.1855,383.6872
722.6677,377.5707
723.1498,368.9012
723.6319,358.8196
724.114,347.9304
724.5961,336.1472
725.0782,321.5494
725.5604,302.736
726.0425,283.8425
726.5246,266.2997
727.0067,250.0986
727.4888,234.2865
727.9709,219.0346
728.4531,204.5539
728.9352,190.9832
729.4173,178.5146
729.8994,167.822
730.3815,158.8033
730.8636,150.1181
731.3458,140.5903
731.8279,131.43
732.31,123.6012
732.7921,117.3166
733.2742,111.7105
733.7563,106.9274
734.2385,102.5067
734.7206,98.15352
735.2027,93.84259
735.6848,89.50214
736.1669,84.93372
736.649,81.01964
737.1312,79.25031
737.6133,78.88647
738.0954,77.87484
738.5775,75.81105
739.0596,73.29334
739.5417,70.11426
740.0239,67.01724
740.506,64.90863
740.9881,64.6934
741.4702,64.39828
741.9523,63.69277
742.4344,62.72945
742.9166,61.61073
743.3987,60.18978
743.8808,59.18301
744.3629,58.80622
744.845,58.66335
745.3271,57.93684
745.8093,56.78095
746.2914,56.10189
746.7735,56.46192
747.2556,56.88743
747.7377,56.21001
748.2198,54.91866
748.702,53.94252
749.1841,53.82865
749.6662,53.8373
750.1483,53.99496
750.6304,54.09101
751.1125,53.51833
751.5947,51.82031
752.0768,50.57487
752.5589,50.2974
753.041,50.65366
753.5231,50.77703
754.0052,50.67372
754.4874,50.38357
754.9695,49.70893
755.4516,49.03213
755.9337,48.973
756.4158,49.34673
756.8979,49.52417
757.3801,48.9884
757.8622,48.4348
758.3443,48.10845
758.8264,48.02909
759.3085,48.2689
759.7906,49.20559
760.2728,49.70702
760.7549,49.15509
761.237,47.7882
761.7191,47.03721
762.2012,46.89515
762.6833,46.85331
763.1655,46.39039
763.6476,45.94286
764.1297,46.30845
764.6118,47.38698
765.0939,48.22692
765.576,48.25014
766.0582,48.01423
766.5403,47.73037
767.0224,47.39639
767.5045,47.39368
767.9866,47.96377
768.4688,48.45135
768.9509,48.43771
769.433,47.96135
769.9151,47.75883
770.3972,47.83801
770.8793,47.87897
771.3615,47.5439
771.8436,47.061
772.3257,46.80107
772.8078,46.78938
773.2899,46.68696
773.772,45.87063
774.2542,45.25552
774.7363,45.60899
775.2184,47.30885
775.7005,48.35185
776.1826,48.6035
776.6647,48.42589
777.1469,47.9466
777.629,47.18566
778.1111,46.60487
778.5932,46.21405
779.0753,45.9761
779.5574,46.04396
780.0396,46.16291
780.5217,45.84927
781.0038,44.96559
781.4859,44.41147
781.968,44.84496
782.4501,45.57194
782.9323,46.09375
783.4144,46.36697
783.8965,46.49
784.3785,46.40871
784.8607,46.27334
785.3428,46.34549
785.8249,46.55785
786.307,45.97217
786.7891,44.42188
787.2712,43.2737
787.7534,44.3699
788.2355,46.3798
788.7176,47.59161
789.1997,47.6126
789.6818,47.32449
790.1639,46.69397
790.6461,46.11255
791.1282,45.89458
791.6103,46.18666
792.0924,46.45135
792.5745,46.70428
793.0566,46.89016
793.5388,46.89719
794.0209,46.77299
794.503,46.79411
794.9851,47.00687
795.4672,47.20847
795.9493,47.28352
796.4315,47.21587
796.9136,46.94819
797.3957,46.36863
797.8778,45.90397
798.3599,45.55069
798.842,45.43815
799.3242,45.75231
799.8063,46.72989
800.2884,47.19082
800.7705,47.00085
801.2526,46.67394
801.7347,46.97009
802.2169,47.57081
802.699,47.33187
803.1811,45.9526
803.6632,44.83286
804.1453,45.46178
804.6274,46.63928
805.1096,47.20421
805.5917,46.63194
806.0738,46.25658
806.5559,46.24949
807.038,46.4161
807.5201,46.6357
808.0023,46.91962
808.4844,47.11613
808.9665,47.20844
809.4486,47.2681
809.9307,47.47904
810.4128,47.68007
810.895,47.46636
811.3771,46.6946
811.8592,46.11272
812.3413,46.3472
812.8234,46.80262
813.3055,46.99044
813.7877,46.77981
814.2698,46.46926
814.7519,45.806
815.234,45.45124
815.7161,46.3359
816.1982,48.2856
816.6804,48.9886
817.1625,48.23488
817.6446,47.27551
818.1267,47.4248
818.6088,47.93672
819.0909,47.72273
819.5731,46.46453
820.0552,45.69691
820.5373,46.34382
821.0194,47.35334
821.5015,48.06481
821.9836,48.44091
822.4658,48.74914
822.9479,49.0635
823.43,49.07291
823.9121,48.17549
824.3942,46.77538
824.8763,46.25897
825.3585,46.69453
825.8406,47.34359
826.3227,47.83121
826.8048,48.19354
827.2869,48.47196
827.769,48.68616
828.2512,48.70464
828.7333,48.35254
829.2154,48.03098
829.6975,47.96175
830.1796,48.14465
830.6617,48.35428
831.1439,48.59939
831.626,48.69761
832.1081,48.31422
832.5902,47.80126
833.0723,47.76075
833.5544,48.17529
834.0366,48.4572
834.5187,48.23881
835.0008,47.89765
835.4829,47.55946
835.965,47.2295
836.4471,47.21469
836.9293,47.66945
837.4114,47.98566
837.8935,47.67362
838.3756,47.01775
838.8577,47.20922
839.3398,48.12446
839.822,48.85202
840.3041,48.73861
840.7862,48.31028
841.2683,47.89656
841.7504,47.51374
842.2325,47.17028
842.7147,46.58496
843.1968,46.41772
843.6789,46.98047
844.161,48.08232
844.6431,48.93286
845.1252,49.53576
845.6074,49.74392
846.0895,49.29753
846.5716,48.6141
847.0537,48.24914
847.5358,48.13975
848.0179,48.11087
848.5001,47.98701
848.9822,48.04222
849.4643,48.57586
849.9464,49.33093
850.4285,49.70393
850.9106,49.60054
851.3928,49.41761
851.8749,49.2268
852.357,49.02688
852.8391,48.70239
853.3212,48.3544
853.8033,48.35787
854.2855,49.10178
854.7676,49.79947
855.2497,49.79752
855.7318,49.43753
856.2139,49.23708
856.696,49.48036
857.1782,49.58638
857.6603,49.48259
858.1424,49.27692
858.6245,49.01487
859.1066,48.72416
859.5887,48.89392
860.0709,49.67416
860.553,50.59599
861.0351,51.25109
861.5172,51.69976
861.9993,51.97316
862.4814,51.98581
862.9636,52.07994
863.4457,52.63765
863.9278,53.07196
864.4099,52.79082
864.892,51.52568
865.3741,51.22286
865.8563,52.044
866.3384,53.13739
866.8205,53.54899
867.3026,53.72302
867.7847,54.58758
868.2668,56.26064
868.749,57.78671
869.2311,58.65065
869.7132,59.24157
870.1953,59.71905
870.6774,60.07436
871.1595,60.66328
871.6417,61.60134
872.1238,62.44486
872.6059,62.9912
873.088,63.23226
873.5701,62.94062
874.0522,62.19726
874.5344,61.59037
875.0165,61.9164
875.4986,62.1097
875.9807,61.16027
876.4628,59.28234
876.9449,58.03402
877.4271,57.57745
877.9092,57.66927
878.3913,58.4892
878.8734,59.66832
879.3555,59.95292
879.8376,59.43031
880.3198,58.95652
880.8019,58.90677
881.284,59.00782
881.7661,59.2186
882.2482,59.35172
882.7303,59.04774
883.2125,57.84188
883.6946,56.64715
884.1767,55.5288
884.6588,54.52119
885.1409,53.70946
885.623,53.09965
886.1052,52.422
886.5873,51.57147
887.0694,50.90082
887.5515,51.15433
888.0336,51.73668
888.5157,51.68647
888.9979,50.45903
889.48,49.5858
889.9621,49.86146
890.4442,50.39944
890.9263,50.5414
891.4084,50.18721
891.8906,49.95768
892.3727,49.86291
892.8548,49.83723
893.3369,49.8564
893.819,49.89404
894.3011,49.88703
894.7833,49.83561
895.2654,49.82848
895.7475,50.05346
896.2296,50.20058
896.7117,50.01004
897.1938,49.52614
897.676,49.30075
898.1581,49.35538
898.6402,49.6126
899.1223,50.22664
899.6044,50.88271
900.0865,50.66338
900.5687,49.80187
901.0508,49.16062
901.5329,49.24193
902.015,49.55721
902.4971,49.9626
902.9792,50.41936
903.4614,50.87635
903.9435,51.4819
904.4256,51.65953
904.9077,51.21191
905.3898,50.48001
905.8719,49.89162
906.3541,49.49356
906.8362,49.48827
907.3183,50.04967
907.8004,50.62638
908.2825,50.90782
908.7646,51.00788
909.2468,51.03487
909.7289,50.94767
910.211,50.94531
910.6931,51.09191
911.1752,51.18515
911.6573,50.92978
912.1395,50.45924
912.6216,50.34023
913.1037,50.59681
913.5858,50.98066
914.0679,51.62341
914.55,52.07417
915.0322,51.84977
915.5143,50.92017
915.9964,50.39867
916.4785,50.56008
916.9606,50.62026
917.4427,50.17117
917.9249,49.44787
918.407,49.20335
918.8891,49.39316
919.3712,49.78222
919.8533,50.68087
920.3354,51.30233
920.8176,50.68933
921.2997,49.4578
921.7818,48.98303
922.2639,50.04487
922.746,50.69489
923.2281,50.61484
923.7103,50.21815
924.1924,50.13701
924.6745,50.30563
925.1566,50.29642
925.6387,49.95364
926.1208,49.87348
926.603,50.90995
927.0851,52.20938
927.5672,52.9765
928.0493,52.99609
928.5314,52.70108
929.0135,51.94263
929.4957,51.17318
929.9778,50.66231
930.4599,50.40003
930.942,50.3856
931.4241,50.60704
931.9063,50.92889
932.3884,51.24738
932.8705,51.64891
933.3526,52.38802
933.8347,53.33152
934.3168,53.74443
934.799,53.40815
935.2811,52.89981
935.7632,52.26328
936.2453,51.64618
936.7274,51.4495
937.2095,51.59623
937.6917,51.80541
938.1738,52.08721
938.6559,52.18199
939.138,51.55219
939.6201,50.78069
940.1022,50.65401
940.5844,51.75214
941.0665,52.43199
941.5486,52.6034
942.0307,52.5363
942.5128,52.33796
942.9949,52.10781
943.4771,52.41178
943.9592,53.25023
944.4413,53.72746
944.9234,52.81974
945.4055,51.70328
945.8876,51.12246
946.3698,51.12686
946.8519,51.35625
947.334,51.95777
947.8161,52.35412
948.2982,52.17503
948.7803,51.81578
949.2625,52.39106
949.7446,53.61241
950.2267,54.54115
950.7088,54.66585
951.1909,54.56132
951.673,54.42988
952.1552,54.25856
952.6373,54.00032
953.1194,53.53468
953.6015,53.41468
954.0836,53.77164
954.5657,54.17132
955.0479,54.03926
955.53,53.61879
956.0121,53.38727
956.4942,53.40266
956.9763,53.564
957.4584,53.98571
957.9406,54.38904
958.4227,54.57074
958.9048,54.55015
959.3869,54.77961
959.869,55.33429
960.3511,55.58238
960.8333,55.05122
961.3154,54.20238
961.7975,53.64569
962.2796,53.37473
962.7617,53.37796
963.2438,53.68999
963.726,54.2398
964.2081,55.34342
964.6902,56.4465
965.1723,56.70125
965.6544,56.02424
966.1365,55.81623
966.6187,56.30303
967.1008,56.83703
967.5829,56.75001
968.065,56.35426
968.5471,56.04288
969.0292,55.89318
969.5114,55.54521
969.9935,54.47267
970.4756,53.77775
970.9577,54.13439
971.4398,55.26891
971.9219,55.36339
972.4041,54.52313
972.8862,54.05966
973.3683,55.00501
973.8504,56.23782
974.3325,56.85896
974.8146,57.09404
975.2968,57.437
975.7789,58.42293
976.261,58.64164
976.7431,57.69106
977.2252,56.44815
977.7073,56.13331
978.1895,56.52143
978.6716,56.78382
979.1537,56.80587
979.6358,56.8742
980.1179,57.38985
980.6,57.85978
981.0822,57.79023
981.5643,57.15086
982.0463,57.00457
982.5284,57.45329
983.0106,58.02654
983.4927,58.61826
983.9748,59.10072
984.4569,59.08325
984.939,58.7336
985.4211,58.53072
985.9033,58.82487
986.3854,59.11674
986.8675,59.39471
987.3496,59.50042
987.8317,59.10388
988.3138,58.0819
988.796,57.68362
989.2781,58.07307
989.7602,58.66008
990.2423,58.84859
990.7244,58.92173
991.2065,59.21816
991.6887,59.77275
992.1708,60.4519
992.6529,61.90097
993.135,62.4894
993.6171,61.1822
994.0992,58.76298
994.5814,58.50252
995.0635,60.11287
995.5456,61.51225
996.0277,61.6668
996.5098,61.6319
996.9919,62.45469
997.4741,63.49717
997.9562,63.78757
998.4383,62.54758
998.9204,62.05882
999.4025,62.48884
999.8846,63.31724
1000.367,64.35443
1000.849,65.35312
1001.331,65.50591
1001.813,64.83733
1002.295,64.14561
1002.777,63.71001
1003.259,63.49194
1003.742,63.44512
1004.224,63.59963
1004.706,64.21166
1005.188,65.3553
1005.67,66.27164
1006.152,66.74025
1006.634,66.94046
1007.116,66.9296
1007.599,66.87405
1008.081,67.05746
1008.563,67.7134
1009.045,68.15562
1009.527,68.19438
1010.009,68.16348
1010.491,68.29782
1010.973,68.58046
1011.455,68.70849
1011.938,68.72048
1012.42,69.01967
1012.902,70.34751
1013.384,71.58174
1013.866,71.75417
1014.348,71.22957
1014.83,71.18435
1015.312,71.80653
1015.794,72.46663
1016.277,73.11068
1016.759,73.64365
1017.241,73.78041
1017.723,73.74397
1018.205,74.00288
1018.687,74.66156
1019.169,75.36186
1019.651,76.07328
1020.134,76.67467
1020.616,77.08875
1021.098,77.33429
1021.58,77.5605
1022.062,77.76889
1022.544,78.05699
1023.026,78.40882
1023.508,78.9422
1023.99,80.0725
1024.473,81.37896
1024.955,82.10545
1025.437,81.2797
1025.919,81.3936
1026.401,82.83687
1026.883,84.54173
1027.365,85.45932
1027.847,85.7592
1028.33,85.87794
1028.812,85.85704
1029.294,85.84756
1029.776,85.69961
1030.258,85.83245
1030.74,86.66541
1031.222,87.91735
1031.704,88.67049
1032.187,88.8862
1032.669,89.02242
1033.151,89.09557
1033.633,89.4409
1034.115,90.69352
1034.597,92.34279
1035.079,93.75706
1035.561,94.81092
1036.043,95.52556
1036.526,95.74166
1037.008,95.9378
1037.49,96.41705
1037.972,97.11002
1038.454,97.74645
1038.936,98.34115
1039.418,98.99627
1039.9,99.84938
1040.382,100.6774
1040.865,101.2132
1041.347,101.7177
1041.829,102.6954
1042.311,104.3434
1042.793,105.1366
1043.275,104.8053
1043.757,104.5074
1044.239,105.496
1044.722,107.1046
1045.204,108.6697
1045.686,110.1131
1046.168,111.2464
1046.65,111.7756
1047.132,112.4341
1047.614,113.5107
1048.096,114.7908
1048.578,115.682
1049.061,116.3025
1049.543,117.0074
1050.025,117.7648
1050.507,119.011
1050.989,121.5126
1051.471,124.2278
1051.953,126.308
1052.435,127.7747
1052.917,128.3361
1053.4,127.8885
1053.882,127.945
1054.364,129.7215
1054.846,132.3095
1055.328,135.1686
1055.81,137.9688
1056.292,139.9088
1056.774,139.4176
1057.257,140.418
1057.739,143.5876
1058.221,147.6434
1058.703,151.4777
1059.185,154.8948
1059.667,156.777
1060.149,157.1046
1060.631,158.1973
1061.114,161.8539
1061.596,166.022
1062.078,169.6528
1062.56,172.9647
1063.042,177.0129
1063.524,181.7691
1064.006,186.3842
1064.488,190.4647
1064.97,194.8255
1065.453,200.8333
1065.935,207.3359
1066.417,212.7654
1066.899,215.9511
1067.381,221.6862
1067.863,230.9113
1068.345,240.0182
1068.827,246.088
1069.309,251.2228
1069.792,260.6524
1070.274,273.1427
1070.756,285.3539
1071.238,294.9955
1071.72,305.2753
1072.202,316.6458
1072.684,329.0226
1073.166,341.9086
1073.649,355.5094
1074.131,371.0595
1074.613,388.6374
1075.095,408.249
1075.577,429.9485
1076.059,453.8377
1076.541,480.2024
1077.023,509.0412
1077.505,540.5576
1077.988,574.0078
1078.47,611.3107
1078.952,652.6269
1079.434,699.75
1079.916,756.1777
1080.398,819.9573
1080.88,887.9367
1081.362,958.9048
1081.844,1040.634
1082.327,1135.342
1082.809,1236.15
1083.291,1340.86
1083.773,1450.408
1084.255,1567.703
1084.737,1693.458
1085.219,1827.353
1085.701,1974.79
1086.183,2124.785
1086.666,2267.893
1087.148,2416.524
1087.63,2580.401
1088.112,2759.829
1088.594,2946.378
1089.076,3138.787
1089.558,3342.961
1090.04,3563.446
1090.523,3798.906
1091.005,4053.609
1091.487,4322.532
1091.969,4595.896
1092.451,4881.493
1092.933,5154.637
1093.415,5419.834
1093.897,5638.253
1094.38,5790.807
1094.862,5857.935
1095.344,5808.715
1095.826,5641.926
1096.308,5384.565
1096.79,5013.845
1097.272,4591.986
1097.754,4121.862
1098.236,3630.671
1098.719,3159.255
1099.201,2714.697
1099.683,2314.847
1100.165,1971.045
1100.647,1672.352
1101.129,1422.643
1101.611,1213.398
1102.093,1038.159
1102.575,895.4515
1103.058,776.8352
1103.54,682.1246
1104.022,602.1436
1104.504,535.2361
1104.986,478.3116
1105.468,431.4482
1105.95,392.5685
1106.432,358.5451
1106.915,329.6136
1107.397,303.5784
1107.879,280.8443
1108.361,261.007
1108.843,244.8786
1109.325,231.0608
1109.807,218.3067
1110.289,206.5998
1110.771,196.3442
1111.254,188.3498
1111.736,180.4134
1112.218,172.1999
1112.7,164.2507
1113.182,156.7225
1113.664,149.9759
1114.146,145.5213
1114.628,143.2055
1115.11,140.2403
1115.593,134.5106
1116.075,129.3252
1116.557,125.5167
1117.039,122.6944
1117.521,120.1282
1118.003,117.8435
1118.485,116.2961
1118.967,115.6732
1119.45,114.2888
1119.932,109.8984
1120.414,105.6345
1120.896,103.5302
1121.378,103.1334
1121.86,102.2342
1122.342,100.8439
1122.824,98.96556
1123.307,96.34838
1123.789,93.94611
1124.271,92.57193
1124.753,91.85783
1125.235,91.67848
1125.717,92.20027
1126.199,91.26295
1126.681,88.6207
1127.163,86.25444
1127.646,85.25949
1128.128,85.04768
1128.61,85.22197
1129.092,85.53333
1129.574,85.5277
1130.056,84.98715
1130.538,84.3555
1131.02,83.68282
1131.502,82.77561
1131.985,81.05213
1132.467,79.15868
1132.949,78.79399
1133.431,79.52754
1133.913,79.80125
1134.395,78.37387
1134.877,77.44563
1135.359,77.53974
1135.842,77.88434
1136.324,77.31447
1136.806,76.23186
1137.288,76.37614
1137.77,77.71162
1138.252,78.23157
1138.734,75.93771
1139.216,73.82037
1139.698,72.87178
1140.181,72.75948
1140.663,72.99602
1141.145,73.51532
1141.627,73.91732
1142.109,74.16905
1142.591,73.92743
1143.073,72.33689
1143.555,70.76811
1144.037,70.04997
1144.52,70.0771
1145.002,70.63969
1145.484,71.72424
1145.966,72.24595
1146.448,71.78169
1146.93,71.0732
1147.412,70.66415
1147.894,70.39774
1148.377,70.05748
1148.859,69.61914
1149.341,69.69997
1149.823,70.37863
1150.305,70.78654
1150.787,70.3766
1151.269,69.83434
1151.751,69.89532
1152.234,70.32887
1152.716,70.91341
1153.198,71.88264
1153.68,71.94187
1154.162,70.90656
1154.644,69.74583
1155.126,68.82027
1155.608,68.33607
1156.09,69.10711
1156.573,70.4575
1157.055,71.0002
1157.537,69.37511
1158.019,68.48114
1158.501,68.42149
1158.983,68.88028
1159.465,70.15852
1159.947,71.52086
1160.429,71.17697
1160.912,69.53638
1161.394,68.18118
1161.876,67.44342
1162.358,67.5125
1162.84,68.84685
1163.322,70.14189
1163.804,69.49492
1164.286,67.76059
1164.769,67.49213
1165.251,68.62477
1165.733,69.42534
1166.215,68.565
1166.697,68.06963
1167.179,68.63708
1167.661,69.51134
1168.143,69.52586
1168.625,68.84874
1169.108,67.83807
1169.59,66.57323
1170.072,66.08296
1170.554,67.55634
1171.036,69.17082
1171.518,70.30972
1172.0,71.07347
1172.482,71.8718
1172.964,72.54754
1173.447,71.93877
1173.929,69.68868
1174.411,67.79698
1174.893,67.7121
1175.375,68.09745
1175.857,68.17313
1176.339,68.11848
1176.821,68.89008
1177.304,70.31055
1177.786,70.7469
1178.268,69.45218
1178.75,68.4706
1179.232,69.94389
1179.714,71.51205
1180.196,71.20911
1180.678,69.3567
1181.161,69.06234
1181.643,70.18832
1182.125,70.74902
1182.607,69.77853
1183.089,68.69624
1183.571,68.36562
1184.053,68.58167
1184.535,69.30907
1185.017,70.54012
1185.5,70.77364
1185.982,70.03359
1186.464,69.46916
1186.946,69.74448
1187.428,70.15726
1187.91,70.04501
1188.392,69.82767
1188.874,70.10939
1189.356,71.03964
1189.839,70.89172
1190.321,69.62521
1190.803,68.83304
1191.285,70.06935
1191.767,71.44777
1192.249,71.37557
1192.731,70.49684
1193.213,69.76292
1193.696,69.22038
1194.178,68.79138
1194.66,68.47854
1195.142,68.22254
1195.624,67.69462
1196.106,67.47843
1196.588,68.562
1197.07,70.16077
1197.552,70.6351
1198.035,69.57781
1198.517,69.2548
1198.999,69.81715
1199.481,70.41489
1199.963,70.34523
1200.445,70.0642
1200.927,69.94722
1201.409,69.94038
1201.891,69.81725
1202.374,69.4277
1202.856,69.69794
1203.338,70.76679
1203.82,71.7514
1204.302,71.94044
1204.784,71.65044
1205.266,70.90055
1205.748,69.91441
1206.231,69.35101
1206.713,69.23784
1207.195,69.52863
1207.677,70.27762
1208.159,70.9595
1208.641,71.11115
1209.123,70.96689
1209.605,70.73367
1210.088,70.38853
1210.57,69.70835
1211.052,68.52114
1211.534,68.13078
1212.016,68.84605
1212.498,69.60689
1212.98,68.89772
1213.462,68.13075
1213.944,69.00117
1214.427,71.15592
1214.909,71.9407
1215.391,71.10767
1215.873,70.55463
1216.355,70.68225
1216.837,70.88722
1217.319,70.56613
1217.801,70.05473
1218.283,69.58747
1218.766,69.20683
1219.248,69.01231
1219.73,69.00868
1220.212,69.22051
1220.694,69.71316
1221.176,70.11205
1221.658,69.82073
1222.14,69.47129
1222.623,69.8287
1223.105,70.75459
1223.587,70.88744
1224.069,70.13802
1224.551,69.98354
1225.033,70.92402
1225.515,71.91558
1225.997,71.97716
1226.479,71.68755
1226.962,71.43288
1227.444,71.26841
1227.926,71.55791
1228.408,72.30635
1228.89,72.81307
1229.372,72.87135
1229.854,72.68694
1230.336,72.33189
1230.818,71.88217
1231.301,71.23274
1231.783,70.50618
1232.265,70.73386
1232.747,71.86526
1233.229,72.37517
1233.711,71.59379
1234.193,70.92826
1234.675,71.65876
1235.158,72.72832
1235.64,73.48653
1236.122,73.87283
1236.604,73.11989
1237.086,71.41917
1237.568,70.59552
1238.05,71.48387
1238.532,72.49858
1239.015,72.63055
1239.497,72.54761
1239.979,72.79652
1240.461,73.22305
1240.943,72.73091
1241.425,71.55644
1241.907,71.07915
1242.389,71.98057
1242.871,72.91884
1243.354,73.17747
1243.836,73.30907
1244.318,73.67821
1244.8,74.1562
1245.282,74.16681
1245.764,73.77147
1246.246,73.19008
1246.728,72.39021
1247.21,71.68745
1247.693,70.93983
1248.175,70.68414
1248.657,71.48921
1249.139,72.82648
1249.621,72.7215
1250.103,71.67488
1250.585,71.08157
1251.067,71.36871
1251.55,72.10578
1252.032,73.57249
1252.514,74.79385
1252.996,75.28481
1253.478,75.1669
1253.96,74.5009
1254.442,73.5183
1254.924,72.67827
1255.406,72.06533
1255.889,71.78999
1256.371,71.96413
1256.853,72.13968
1257.335,71.94521
1257.817,71.79423
1258.299,72.83396
1258.781,74.30619
1259.263,74.82545
1259.745,73.55513
1260.228,73.12322
1260.71,73.84216
1261.192,74.34151
1261.674,73.69997
1262.156,72.88083
1262.638,73.3314
1263.12,74.41517
1263.602,75.34193
1264.085,76.1181
1264.567,75.83009
1265.049,74.305
1265.531,73.29881
1266.013,73.99001
1266.495,74.86901
1266.977,74.09733
1267.459,72.85789
1267.942,72.71185
1268.424,73.73129
1268.906,73.89317
1269.388,73.2198
1269.87,73.21075
1270.352,74.91949
1270.834,76.6122
1271.316,77.07411
1271.798,76.87474
1272.281,76.47176
1272.763,75.91399
1273.245,75.7422
1273.727,75.91437
1274.209,76.14381
1274.691,76.35918
1275.173,76.51869
1275.655,76.51798
1276.137,76.55327
1276.62,76.84473
1277.102,77.23057
1277.584,76.79685
1278.066,75.85932
1278.548,75.57685
1279.03,76.65452
1279.512,77.33855
1279.994,77.02208
1280.476,76.48325
1280.959,76.00961
1281.441,75.64089
1281.923,75.51842
1282.405,75.55821
1282.887,75.60473
1283.369,75.65596
1283.851,75.52357
1284.333,75.05978
1284.816,74.83031
1285.298,75.19405
1285.78,75.73832
1286.262,75.75967
1286.744,75.58191
1287.226,75.69664
1287.708,76.24269
1288.19,76.65456
1288.672,76.94906
1289.155,76.947
1289.637,76.45286
1290.119,75.96495
1290.601,76.02797
1291.083,76.33295
1291.565,76.52177
1292.047,76.60796
1292.529,77.12904
1293.011,78.06203
1293.494,78.52142
1293.976,78.12917
1294.458,77.61857
1294.94,77.52272
1295.422,77.44355
1295.904,77.00425
1296.386,76.40636
1296.868,76.55902
1297.351,77.29684
1297.833,77.99545
1298.315,78.53819
1298.797,78.82379
1299.279,78.60461
1299.761,78.33299
1300.243,78.08376
1300.725,77.99532
1301.208,78.71064
1301.69,79.67552
1302.172,79.61451
1302.654,78.2039
1303.136,77.02682
1303.618,76.08194
1304.1,75.84627
1304.582,76.45264
1305.064,77.91365
