Raman Shift,Intensity 
400,1.183588567
401,1.235614813
402,1.231410993
403,1.244037224
404,1.216350314
405,1.202465587
406,1.220010434
407,1.236535678
408,1.180267556
409,1.195169852
410,1.227698329
411,1.192286646
412,1.281778602
413,1.189610607
414,1.249005649
415,1.211275834
416,1.200670463
417,1.252121822
418,1.173212519
419,1.203172189
420,1.240854621
421,1.172640565
422,1.269912902
423,1.213179051
424,1.288253938
425,1.280043592
426,1.240383965
427,1.198161728
428,1.261184087
429,1.260234378
430,1.237182507
431,1.316453201
432,1.261797961
433,1.197031582
434,1.262575159
435,1.256293875
436,1.245975982
437,1.264147643
438,1.289336206
439,1.308245053
440,1.250951293
441,1.275691885
442,1.192491929
443,1.201861444
444,1.226100233
445,1.225778406
446,1.256651155
447,1.331982763
448,1.272354705
449,1.278527688
450,1.265117103
451,1.340414716
452,1.230125615
453,1.327895506
454,1.271492912
455,1.288016205
456,1.255295538
457,1.288988212
458,1.311984949
459,1.315880602
460,1.299856452
461,1.290046815
462,1.310592298
463,1.313428703
464,1.330738531
465,1.235281423
466,1.30418554
467,1.286149586
468,1.324825295
469,1.319451994
470,1.254153052
471,1.339299513
472,1.259166577
473,1.282016098
474,1.247835825
475,1.23173059
476,1.337459105
477,1.271463955
478,1.306629247
479,1.227962365
480,1.190214074
481,1.282935498
482,1.264467076
483,1.254943187
484,1.248523003
485,1.21572097
486,1.263964193
487,1.279165243
488,1.20761247
489,1.309568078
490,1.291990725
491,1.245773813
492,1.258182311
493,1.232535987
494,1.276752245
495,1.186319638
496,1.234529409
497,1.257620589
498,1.247841467
499,1.293357722
500,1.211829259
501,1.279321054
502,1.265223072
503,1.198379977
504,1.260143319
505,1.230352929
506,1.190273136
507,1.19232295
508,1.219757366
509,1.21808858
510,1.188074482
511,1.235325729
512,1.194884402
513,1.190567634
514,1.226906788
515,1.218090582
516,1.188151437
517,1.211330779
518,1.164516218
519,1.167328744
520,1.235753557
521,1.228643227
522,1.253921278
523,1.257859845
524,1.2230807
525,1.168646426
526,1.180028682
527,1.209706947
528,1.188388323
529,1.247939583
530,1.148255827
531,1.195631849
532,1.158673801
533,1.155964906
534,1.145483861
535,1.224378262
536,1.168304901
537,1.156764323
538,1.286560784
539,1.184834944
540,1.105575975
541,1.176277457
542,1.223291227
543,1.200035172
544,1.187049432
545,1.147581094
546,1.218125067
547,1.197232416
548,1.141532384
549,1.269276167
550,1.148188681
551,1.210363959
552,1.207670948
553,1.21847667
554,1.232000287
555,1.211401402
556,1.242204549
557,1.227681102
558,1.197189475
559,1.202262656
560,1.161463519
561,1.278362558
562,1.190391418
563,1.17735268
564,1.154517828
565,1.191039546
566,1.196235093
567,1.236817438
568,1.183482294
569,1.239059139
570,1.217063538
571,1.242262871
572,1.222261332
573,1.263390226
574,1.202510076
575,1.2214899
576,1.266200003
577,1.221420155
578,1.164307295
579,1.095714067
580,1.159266298
581,1.151987262
582,1.280411902
583,1.155315591
584,1.204652137
585,1.168129523
586,1.247649872
587,1.235096855
588,1.208134835
589,1.214980042
590,1.206978408
591,1.148346125
592,1.15688904
593,1.237407619
594,1.165841736
595,1.145532117
596,1.288041714
597,1.176099147
598,1.141369341
599,1.261482307
600,1.157297469
601,1.252129281
602,1.24227242
603,1.183766382
604,1.227765272
605,1.187134696
606,1.210974604
607,1.273225992
608,1.252604472
609,1.157142341
610,1.130027312
611,1.213656011
612,1.185135315
613,1.177744208
614,1.23458823
615,1.219965989
616,1.211913057
617,1.2205764
618,1.151911237
619,1.158150059
620,1.157866186
621,1.157584488
622,1.218686098
623,1.168675636
624,1.128922501
625,1.199438226
626,1.199177097
627,1.253976178
628,1.229207464
629,1.206059266
630,1.169271468
631,1.201310032
632,1.254318077
633,1.147850936
634,1.210866385
635,1.200179715
636,1.15892455
637,1.183438627
638,1.253089656
639,1.248339887
640,1.200576989
641,1.12502779
642,1.196172456
643,1.152713881
644,1.164762184
645,1.164589967
646,1.208303656
647,1.197342371
648,1.196337269
649,1.203760155
650,1.244393479
651,1.239006427
652,1.216775592
653,1.223018972
654,1.260660024
655,1.258119562
656,1.229379886
657,1.189815061
658,1.209285106
659,1.201661987
660,1.211910385
661,1.167470659
662,1.213599757
663,1.185470543
664,1.277547798
665,1.233812818
666,1.273701978
667,1.218865814
668,1.144990255
669,1.125664341
670,1.132043398
671,1.25764774
672,1.218275595
673,1.230273539
674,1.124030925
675,1.18050066
676,1.279051635
677,1.214553241
678,1.237451446
679,1.210435535
680,1.192434517
681,1.218433342
682,1.257995291
683,1.114407176
684,1.19678038
685,1.176864878
686,1.218683135
687,1.128800541
688,1.158138456
689,1.191526309
690,1.247195953
691,1.205567086
692,1.257777717
693,1.17203497
694,1.159850371
695,1.255804606
696,1.143512665
697,1.156982455
698,1.197926068
699,1.180894685
700,1.229999998
701,1.167515789
702,1.203959352
703,1.265571583
704,1.183695242
705,1.199449862
706,1.194498776
707,1.188711564
708,1.269556975
709,1.172458568
710,1.201994272
711,1.228962878
712,1.198888569
713,1.261067704
714,1.225473829
715,1.22198971
716,1.241327755
717,1.193110712
718,1.219267144
719,1.171221829
720,1.229809274
721,1.202525512
722,1.169260864
723,1.19194467
724,1.205368401
725,1.210141898
726,1.214534016
727,1.207229914
728,1.206675666
729,1.190538239
730,1.243997414
731,1.202294514
732,1.080340647
733,1.237263258
734,1.194777137
735,1.122282621
736,1.254722375
737,1.218768532
738,1.203081125
739,1.215159122
740,1.154028597
741,1.143054367
742,1.160574322
743,1.248144766
744,1.236253505
745,1.182701099
746,1.176593119
747,1.205889532
748,1.147796578
749,1.267625935
750,1.174864607
751,1.147159296
752,1.177013456
753,1.187985321
754,1.234001508
755,1.161421428
756,1.099496461
757,1.115129192
758,1.143341369
759,1.249275543
760,1.227183413
761,1.160944898
762,1.167002966
763,1.123496421
764,1.220708137
765,1.180335854
766,1.188846973
767,1.17336049
768,1.219387882
769,1.206669563
770,1.059951773
771,1.217804469
772,1.216252773
773,1.209178074
774,1.200801971
775,1.197949238
776,1.264859083
777,1.202335144
778,1.269728616
779,1.188509729
780,1.182984313
781,1.295425513
782,1.160847079
783,1.173638068
784,1.199336145
785,1.223508777
786,1.209670947
787,1.181446162
788,1.183624381
789,1.225037878
790,1.23622857
791,1.21745295
792,1.210594344
793,1.220798477
794,1.239419286
795,1.325453397
796,1.186202247
797,1.181980904
798,1.226663398
799,1.225546426
800,1.202502356
801,1.157267859
802,1.225772505
803,1.177710993
804,1.235343252
805,1.235599987
806,1.195551281
807,1.145327771
808,1.140868332
809,1.21704592
810,1.21305788
811,1.209257864
812,1.222239238
813,1.240720876
814,1.233428534
815,1.250838817
816,1.199331435
817,1.228886269
818,1.178799431
819,1.217362967
820,1.262495415
821,1.250874883
822,1.180347903
823,1.194366517
824,1.212181276
825,1.174689992
826,1.176930878
827,1.16285414
828,1.168944838
829,1.175858803
830,1.22912744
831,1.201906577
832,1.154406348
833,1.201963438
834,1.24122504
835,1.196396887
836,1.20719439
837,1.130653859
838,1.141778343
839,1.203735418
840,1.169796664
841,1.174130311
842,1.197415702
843,1.149889933
844,1.193981256
845,1.187183554
846,1.211385436
847,1.185757789
848,1.163186091
849,1.23225059
850,1.230087039
851,1.226004338
852,1.18085084
853,1.170109443
854,1.202219144
855,1.140996681
856,1.226783238
857,1.197108425
858,1.227054698
859,1.215018165
860,1.215640568
861,1.175427357
862,1.154906177
863,1.18896008
864,1.202613369
865,1.200133322
866,1.158536053
867,1.190131409
868,1.163378953
869,1.19341126
870,1.1320548
871,1.212681101
872,1.220122591
873,1.239476734
874,1.210869843
875,1.225433015
876,1.102874192
877,1.223436673
878,1.200348671
879,1.223033123
880,1.151608166
881,1.149713031
882,1.189241291
883,1.259056042
884,1.197742869
885,1.203275979
886,1.273341603
887,1.229952382
888,1.212874176
889,1.171970317
890,1.279471342
891,1.213557665
892,1.185250243
893,1.159953741
894,1.140790366
895,1.178749478
896,1.138355754
897,1.207527204
898,1.230487967
899,1.217667996
900,1.225751347
901,1.237605462
902,1.197155348
903,1.246416015
904,1.224214332
905,1.184263472
906,1.18511369
907,1.184936896
908,1.259856223
909,1.192502461
910,1.251526978
911,1.273711869
912,1.160568402
913,1.230145648
914,1.231338576
915,1.191414581
916,1.191026235
917,1.118635196
918,1.214846189
919,1.169567025
920,1.235688497
921,1.250269372
922,1.17119568
923,1.224655347
924,1.142754056
925,1.259962226
926,1.194408321
927,1.201658106
928,1.239853644
929,1.229200939
930,1.175023979
931,1.209261197
932,1.216359518
933,1.233828665
934,1.215399816
935,1.205392645
936,1.251257943
937,1.202543671
938,1.195166456
939,1.242820518
940,1.254648164
941,1.224013998
942,1.274263181
943,1.177537526
944,1.249384079
945,1.237924356
946,1.253612055
947,1.253703772
948,1.122162945
949,1.251083839
950,1.180775761
951,1.226811779
952,1.14137348
953,1.24437927
954,1.12647624
955,1.252172134
956,1.249254425
957,1.146512383
958,1.168517397
959,1.214820752
960,1.238732853
961,1.190076002
962,1.205292307
963,1.200856913
964,1.21386145
965,1.260800963
966,1.215325201
967,1.193609563
968,1.297944168
969,1.222500409
970,1.242295336
971,1.26280501
972,1.191141701
973,1.236271438
974,1.217408196
975,1.269238605
976,1.181091948
977,1.191289339
978,1.241107261
979,1.209832323
980,1.17490838
981,1.25875421
982,1.237859992
983,1.207586489
984,1.241138018
985,1.238874642
986,1.223363578
987,1.252546214
988,1.215565292
989,1.261597673
990,1.238449203
991,1.207840363
992,1.314312076
993,1.307904232
994,1.27559058
995,1.232753057
996,1.292052941
997,1.278721166
998,1.24240628
999,1.276713502
1000,1.31076564
1001,1.306454378
1002,1.219764387
1003,1.25018657
1004,1.321333338
1005,1.292393405
1006,1.233330395
1007,1.230683829
1008,1.240986472
1009,1.328516218
1010,1.285841929
1011,1.299196741
1012,1.326740202
1013,1.309751849
1014,1.230927609
1015,1.324008429
1016,1.278272574
1017,1.231688554
1018,1.293005817
1019,1.310894178
1020,1.267763255
1021,1.316705707
1022,1.284998717
1023,1.266164633
1024,1.320673649
1025,1.29180341
1026,1.320922264
1027,1.360495373
1028,1.301473775
1029,1.326717898
1030,1.317516162
1031,1.40408403
1032,1.356448592
1033,1.337124464
1034,1.281303942
1035,1.352768026
1036,1.308610243
1037,1.385123881
1038,1.263354126
1039,1.249347658
1040,1.377587015
1041,1.286560419
1042,1.359562013
1043,1.355514589
1044,1.326586862
1045,1.266202106
1046,1.380243421
1047,1.389470023
1048,1.364482052
1049,1.398021277
1050,1.354648979
1051,1.311683502
1052,1.367965523
1053,1.421122335
1054,1.376674582
1055,1.346417239
1056,1.379833874
1057,1.377244805
1058,1.332097314
1059,1.402706817
1060,1.410105755
1061,1.410471143
1062,1.410390428
1063,1.408784402
1064,1.363911526
1065,1.394592234
1066,1.370981496
1067,1.42442792
1068,1.438989115
1069,1.337943785
1070,1.431370828
1071,1.430306305
1072,1.440438001
1073,1.399023398
1074,1.384630412
1075,1.408053394
1076,1.380990944
1077,1.433698545
1078,1.392998154
1079,1.414038493
1080,1.353991049
1081,1.369448129
1082,1.444400401
1083,1.328726001
1084,1.462651925
1085,1.378652844
1086,1.389350218
1087,1.418615147
1088,1.355695064
1089,1.343253941
1090,1.366800272
1091,1.311327807
1092,1.415806815
1093,1.378090382
1094,1.385561738
1095,1.435003648
1096,1.428564028
1097,1.413451731
1098,1.355655363
1099,1.369420465
1100,1.444546316
1101,1.405565494
1102,1.364585733
1103,1.42411326
1104,1.335066735
1105,1.3626454
1106,1.366824433
1107,1.303352553
1108,1.37053682
1109,1.361806664
1110,1.482440992
1111,1.470658612
1112,1.366986158
1113,1.345002136
1114,1.295419105
1115,1.412462339
1116,1.408213246
1117,1.32584181
1118,1.36728207
1119,1.342925606
1120,1.276563609
1121,1.392691697
1122,1.33358392
1123,1.32412991
1124,1.337828125
1125,1.354568562
1126,1.343394938
1127,1.375436343
1128,1.388220479
1129,1.285910095
1130,1.310583872
1131,1.324748507
1132,1.415951601
1133,1.296117375
1134,1.308325331
1135,1.298691635
1136,1.369809178
1137,1.302724512
1138,1.332244116
1139,1.254646775
1140,1.301780103
1141,1.221467597
1142,1.396155268
1143,1.309942696
1144,1.274339608
1145,1.321376909
1146,1.233873758
1147,1.311395889
1148,1.272506423
1149,1.261391555
1150,1.22806844
1151,1.214235016
1152,1.240289076
1153,1.314486697
1154,1.220524716
1155,1.235537382
1156,1.300380607
1157,1.20459413
1158,1.244367203
1159,1.232024798
1160,1.248027288
1161,1.185880701
1162,1.266148783
1163,1.271078236
1164,1.209857388
1165,1.217169274
1166,1.257903343
1167,1.224945868
1168,1.211885303
1169,1.202492983
1170,1.267700481
1171,1.233933082
1172,1.219175826
1173,1.192790389
1174,1.236950719
1175,1.212091724
1176,1.219411591
1177,1.258386658
1178,1.255302592
1179,1.248910978
1180,1.185739398
1181,1.23715594
1182,1.207664345
1183,1.215387449
1184,1.272737496
1185,1.21226875
1186,1.198493342
1187,1.202337949
1188,1.209973314
1189,1.195459701
1190,1.249545775
1191,1.261260869
1192,1.227992035
1193,1.222939637
1194,1.184305052
1195,1.241428793
1196,1.192487799
1197,1.169473333
1198,1.213689822
1199,1.273387014
1200,1.225541026
1201,1.228593828
1202,1.162309794
1203,1.223742689
1204,1.255737014
1205,1.314703103
1206,1.197314373
1207,1.24660626
1208,1.13883744
1209,1.279259854
1210,1.150879406
1211,1.217638406
1212,1.14357535
1213,1.18140293
1214,1.177514808
1215,1.20784659
1216,1.162428745
1217,1.24764407
1218,1.147302759
1219,1.190166526
1220,1.195725688
1221,1.20247303
1222,1.195128084
1223,1.231842409
1224,1.125308604
1225,1.195926543
1226,1.252606695
1227,1.165615345
1228,1.228816494
1229,1.263291072
1230,1.201039271
1231,1.205000897
1232,1.169849012
1233,1.173998721
1234,1.140632046
1235,1.201373613
1236,1.18604318
1237,1.229994989
1238,1.207789091
1239,1.188644158
1240,1.167914258
1241,1.175677028
1242,1.200333029
1243,1.188710229
1244,1.217876549
1245,1.212871701
1246,1.282649758
1247,1.217163858
1248,1.187421184
1249,1.220567271
1250,1.263205973
1251,1.194449131
1252,1.212905447
1253,1.227984271
1254,1.20437536
1255,1.191690712
1256,1.19771138
1257,1.224288419
1258,1.115906061
1259,1.236354761
1260,1.20317908
1261,1.216052665
1262,1.214214818
1263,1.199116181
1264,1.214691307
1265,1.169777165
1266,1.175373463
1267,1.20812463
1268,1.214776359
1269,1.253962177
1270,1.207567868
1271,1.125692313
1272,1.155654311
1273,1.174027281
1274,1.169356186
1275,1.232301128
1276,1.194434185
1277,1.196892518
1278,1.191329582
1279,1.203007563
1280,1.241105722
1281,1.212003972
1282,1.275034511
1283,1.201212046
1284,1.101266574
1285,1.191821058
1286,1.174901903
1287,1.266109273
1288,1.185290632
1289,1.1630648
1290,1.185736352
1291,1.168004741
1292,1.228677297
1293,1.241255566
1294,1.210781996
1295,1.242103167
1296,1.191385715
1297,1.191426436
1298,1.177516029
1299,1.22618512
1300,1.307002512
1301,1.163222899
1302,1.218693459
1303,1.217985457
1304,1.256900939
1305,1.223409595
1306,1.169778932
1307,1.198770259
1308,1.236823465
1309,1.239258779
1310,1.193611528
1311,1.237016183
1312,1.281988495
1313,1.126364654
1314,1.183786113
1315,1.211237588
1316,1.251594592
1317,1.265892264
1318,1.210113418
1319,1.219421143
1320,1.302023771
1321,1.19786426
1322,1.197220261
1323,1.170046455
1324,1.218416396
1325,1.307103205
1326,1.172692787
1327,1.157888647
1328,1.190993898
1329,1.218931609
1330,1.226662731
1331,1.144209309
1332,1.182657706
1333,1.118207066
1334,1.194541909
1335,1.258445744
1336,1.19459247
1337,1.126670813
1338,1.261696748
1339,1.188597575
1340,1.191670516
1341,1.171702403
1342,1.170001944
1343,1.121820398
1344,1.215285469
1345,1.202217578
1346,1.180788554
1347,1.219669879
1348,1.096573352
1349,1.1971439
1350,1.185872928
1351,1.163245317
1352,1.227768028
1353,1.212820452
1354,1.218312718
1355,1.212806394
1356,1.195642031
1357,1.136696167
1358,1.281185677
1359,1.206312872
1360,1.181526162
1361,1.257104177
1362,1.213754403
1363,1.176195545
1364,1.329408
1365,1.227652507
1366,1.256282056
1367,1.19365078
1368,1.286168718
1369,1.180758937
1370,1.182849637
1371,1.264857071
1372,1.237347524
1373,1.22737327
1374,1.146177511
1375,1.266240495
1376,1.204744528
1377,1.224818379
1378,1.157771928
1379,1.206589919
1380,1.247011888
1381,1.16215264
1382,1.190192277
1383,1.185906002
1384,1.194407501
1385,1.200080208
1386,1.213748139
1387,1.127733253
1388,1.249817963
1389,1.188409388
1390,1.272524186
1391,1.122578896
1392,1.192613381
1393,1.209882992
1394,1.2643859
1395,1.192071892
1396,1.252416307
1397,1.1713665
1398,1.235986988
1399,1.219916217
1400,1.196308622
1401,1.226680676
1402,1.226516527
1403,1.195695453
1404,1.243573127
1405,1.196396443
1406,1.21370509
1407,1.213715329
1408,1.234842139
1409,1.168953946
1410,1.137818846
1411,1.279458702
1412,1.252356049
1413,1.186179144
1414,1.299380238
1415,1.223515748
1416,1.261733821
1417,1.24167171
1418,1.28044892
1419,1.190920217
1420,1.22598622
1421,1.253662867
1422,1.216008874
1423,1.230865271
1424,1.210280683
1425,1.209489508
1426,1.212189142
1427,1.286340075
1428,1.23454099
1429,1.213436968
1430,1.232689225
1431,1.154222431
1432,1.28310133
1433,1.28627542
1434,1.299150443
1435,1.188384014
1436,1.297241252
1437,1.218924582
1438,1.194062219
1439,1.238652903
1440,1.26773758
1441,1.292232015
1442,1.247974715
1443,1.25051539
1444,1.209738391
1445,1.264260766
1446,1.261570889
1447,1.36852134
1448,1.305958338
1449,1.285200642
1450,1.280245332
1451,1.310565278
1452,1.242346279
1453,1.270445068
1454,1.261875583
1455,1.30835113
1456,1.23955452
1457,1.253084729
1458,1.228155069
1459,1.192473125
1460,1.268878166
1461,1.189949437
1462,1.281822844
1463,1.327845235
1464,1.253284044
1465,1.306598592
1466,1.289883875
1467,1.269028953
1468,1.265341601
1469,1.282845135
1470,1.241812804
1471,1.30360349
1472,1.272369733
1473,1.31033223
1474,1.28328671
1475,1.258821607
1476,1.322904324
1477,1.259567699
1478,1.261115902
1479,1.342068422
1480,1.326002679
1481,1.245767387
1482,1.224194389
1483,1.313231657
1484,1.29042391
1485,1.338436362
1486,1.351281529
1487,1.274986859
1488,1.300717007
1489,1.370114176
1490,1.323213476
1491,1.369916713
1492,1.373319244
1493,1.324848104
1494,1.372439913
1495,1.306237722
1496,1.381860425
1497,1.337146917
1498,1.319389116
1499,1.365388943
1500,1.316724246
1501,1.372048166
1502,1.299824297
1503,1.313379049
1504,1.389362544
1505,1.363964116
1506,1.401670441
1507,1.34265689
1508,1.41468834
1509,1.395984268
1510,1.360702951
1511,1.362271708
1512,1.423663856
1513,1.374465502
1514,1.35711371
1515,1.352256636
1516,1.359218467
1517,1.340661114
1518,1.344246181
1519,1.435167179
1520,1.412981739
1521,1.367012103
1522,1.430307968
1523,1.444474053
1524,1.394536453
1525,1.382753514
1526,1.434554862
1527,1.38537389
1528,1.377600341
1529,1.456005112
1530,1.390225648
1531,1.382015302
1532,1.402715427
1533,1.295327883
1534,1.373547121
1535,1.388391967
1536,1.422968912
1537,1.432958104
1538,1.407781994
1539,1.501250344
1540,1.473176191
1541,1.4120177
1542,1.396492385
1543,1.386263606
1544,1.325577121
1545,1.447610465
1546,1.42118831
1547,1.392695727
1548,1.41710914
1549,1.400983331
1550,1.487440685
1551,1.406602282
1552,1.411007554
1553,1.433156313
1554,1.48785429
1555,1.45490087
1556,1.400381352
1557,1.420994624
1558,1.406872254
1559,1.464311843
1560,1.457741094
1561,1.426589776
1562,1.360055442
1563,1.465997462
1564,1.400229782
1565,1.407848974
1566,1.471142697
1567,1.387451899
1568,1.451484142
1569,1.539695485
1570,1.485305422
1571,1.562980854
1572,1.409333403
1573,1.450743381
1574,1.492983423
1575,1.416503669
1576,1.486041509
1577,1.425113513
1578,1.446364166
1579,1.477909159
1580,1.4588582
1581,1.477128364
1582,1.476690772
1583,1.402278147
1584,1.417544748
1585,1.490362591
1586,1.521240464
1587,1.54340933
1588,1.537163732
1589,1.53698059
1590,1.451424983
1591,1.469735733
1592,1.53780651
1593,1.545552024
1594,1.488996468
1595,1.525738087
1596,1.458694786
1597,1.57266784
1598,1.492926251
1599,1.504065601
1600,1.44101996
1601,1.489064283
1602,1.514158317
1603,1.558164852
1604,1.524692573
1605,1.474663868
1606,1.462679339
1607,1.474284953
1608,1.521212919
1609,1.517518414
1610,1.530820439
1611,1.490988572
1612,1.509925798
1613,1.486137605
1614,1.484681033
1615,1.54818881
1616,1.540477095
1617,1.454543809
1618,1.546027704
1619,1.451729226
1620,1.475872215
1621,1.505829722
1622,1.437080931
1623,1.523339637
1624,1.516823895
1625,1.474475966
1626,1.447085519
1627,1.541055146
1628,1.508946482
1629,1.519182772
1630,1.439712322
1631,1.450450193
1632,1.513028491
1633,1.463629892
1634,1.506333003
1635,1.47298055
1636,1.436538863
1637,1.446537335
1638,1.41290163
1639,1.50368447
1640,1.442557154
1641,1.514298928
1642,1.496600593
1643,1.517663963
1644,1.474937365
1645,1.457736926
1646,1.524378209
1647,1.524762946
1648,1.463023956
1649,1.45444159
1650,1.425066994
1651,1.440730187
1652,1.426850397
1653,1.436159079
1654,1.445670555
1655,1.503562236
1656,1.508511226
1657,1.306510462
1658,1.465208298
1659,1.385673833
1660,1.449908094
1661,1.416548812
1662,1.481260028
1663,1.517195242
1664,1.474485996
1665,1.440850618
1666,1.430301841
1667,1.457958038
1668,1.385498916
1669,1.439474106
1670,1.465505203
1671,1.475680085
1672,1.477863391
1673,1.476497236
1674,1.464828409
1675,1.343749099
1676,1.425796753
1677,1.420226675
1678,1.379521321
1679,1.434767616
1680,1.396108648
1681,1.428314889
1682,1.488084356
1683,1.424375008
1684,1.468584762
1685,1.470631372
1686,1.3814903
1687,1.383881478
1688,1.398621917
1689,1.385604111
1690,1.41895963
1691,1.427075755
1692,1.408981384
1693,1.41471014
1694,1.451986761
1695,1.423557912
1696,1.408864301
1697,1.425013776
1698,1.334653479
1699,1.447526896
1700,1.322610124
1701,1.341064855
1702,1.362870377
1703,1.393260606
1704,1.331208756
1705,1.405350566
1706,1.364829995
1707,1.364630473
1708,1.419623933
1709,1.376508124
1710,1.330952108
1711,1.322644455
1712,1.347838488
1713,1.357162305
1714,1.316943998
1715,1.346598984
1716,1.382720901
1717,1.386381946
1718,1.284019293
1719,1.423401279
1720,1.323286173
1721,1.35701774
1722,1.276228864
1723,1.366697309
1724,1.400414158
1725,1.377206677
1726,1.371325231
1727,1.347928954
1728,1.300303064
1729,1.32584207
1730,1.332718103
1731,1.384573855
1732,1.339618318
1733,1.276324546
1734,1.276740306
1735,1.306870638
1736,1.312885224
1737,1.223511905
1738,1.331131817
1739,1.363886977
1740,1.283026371
1741,1.296815479
1742,1.323946717
1743,1.303468845
1744,1.295956849
1745,1.339155271
1746,1.219502193
1747,1.263340411
1748,1.289727217
1749,1.340686796
1750,1.274617626
1751,1.329109454
1752,1.28155303
1753,1.364739072
1754,1.275564003
1755,1.249012801
1756,1.25006779
1757,1.320024188
1758,1.21783801
1759,1.35802062
1760,1.317511119
1761,1.314410731
1762,1.278702301
1763,1.31746323
1764,1.276459343
1765,1.332130184
1766,1.231607103
1767,1.258342427
1768,1.222286049
1769,1.230324517
1770,1.255970256
1771,1.257169263
1772,1.274211198
1773,1.274080511
1774,1.212094178
1775,1.240297316
1776,1.240186778
1777,1.306792503
1778,1.182987076
1779,1.341023865
1780,1.309373854
1781,1.228106592
1782,1.218498261
1783,1.233077739
1784,1.224483911
1785,1.164338152
1786,1.257015615
1787,1.282846705
1788,1.228683761
1789,1.298924335
1790,1.273931641
1791,1.208919867
1792,1.277178196
1793,1.250915476
1794,1.23303136
1795,1.230796302
1796,1.198100649
1797,1.230089503
1798,1.23200078
1799,1.216534953
1800,1.206456012
1801,1.230399377
1802,1.260140345
1803,1.23423324
1804,1.23946851
1805,1.237751894
1806,1.203355532
1807,1.230769359
1808,1.255297904
1809,1.211485062
1810,1.29249921
1811,1.255407854
1812,1.249782848
1813,1.202433604
1814,1.220653875
1815,1.25744903
1816,1.241661787
1817,1.26404402
1818,1.225321503
1819,1.193539601
1820,1.218290826
1821,1.182093953
1822,1.218127898
1823,1.245886619
1824,1.15806718
1825,1.24782389
1826,1.169684705
1827,1.190446165
1828,1.289881229
1829,1.183847819
1830,1.208933294
1831,1.243345119
1832,1.160991764
1833,1.248819579
1834,1.267291274
1835,1.248709737
1836,1.197624381
1837,1.229445801
1838,1.218496452
1839,1.216449176
1840,1.231617256
1841,1.204638908
1842,1.221198959
1843,1.221238585
1844,1.154181376
1845,1.188053576
1846,1.162690003
1847,1.187499348
1848,1.21120442
1849,1.224900883
1850,1.193159839
1851,1.286951636
1852,1.216054699
1853,1.147186033
1854,1.196176648
1855,1.183289932
1856,1.190406701
1857,1.164490484
1858,1.156361636
1859,1.228621076
1860,1.224956439
1861,1.222133433
1862,1.17301797
1863,1.198016042
1864,1.167050363
1865,1.269090833
1866,1.234081486
1867,1.248246121
1868,1.184735059
1869,1.231007538
1870,1.225794794
1871,1.210331252
1872,1.17597161
1873,1.2310137
1874,1.257507829
1875,1.16099588
1876,1.217733487
1877,1.244928312
1878,1.286830574
1879,1.243509956
1880,1.18954709
1881,1.198058496
1882,1.145730781
1883,1.189465937
1884,1.150613142
1885,1.178559606
1886,1.207581748
1887,1.251685043
1888,1.175264176
1889,1.179938909
1890,1.219955967
1891,1.152817491
1892,1.263345717
1893,1.215484563
1894,1.188896996
1895,1.180789419
1896,1.169184638
1897,1.193537189
1898,1.171904259
1899,1.209608826
1900,1.232066652
1901,1.175524967
1902,1.243862328
1903,1.192603561
1904,1.079865393
1905,1.242958065
1906,1.237069934
1907,1.161499582
1908,1.18840517
1909,1.228337458
1910,1.219346338
1911,1.206179465
1912,1.248489019
1913,1.281302797
1914,1.176650447
1915,1.181881202
1916,1.192848837
1917,1.237392282
1918,1.219577845
1919,1.281215783
1920,1.191571092
1921,1.152271849
1922,1.271817161
1923,1.231810797
1924,1.209066263
1925,1.192690069
1926,1.173967488
1927,1.238125431
1928,1.144561812
1929,1.225105977
1930,1.210551605
1931,1.210113458
1932,1.316375051
1933,1.246266463
1934,1.173750925
1935,1.158859939
1936,1.161414756
1937,1.182483062
1938,1.273166266
1939,1.164235306
1940,1.226634333
1941,1.157451605
1942,1.232433522
1943,1.144706302
1944,1.226987702
1945,1.075139612
1946,1.178607636
1947,1.137447651
1948,1.200005145
1949,1.230286125
1950,1.241385993
1951,1.228974614
1952,1.211636106
1953,1.26633941
1954,1.181444773
1955,1.190415096
1956,1.202064484
1957,1.17370335
1958,1.20257069
1959,1.231628968
1960,1.142665541
1961,1.256886101
1962,1.180777424
1963,1.146486059
1964,1.203748798
1965,1.1671826
1966,1.103646518
1967,1.219220184
1968,1.11909846
1969,1.149279573
1970,1.180889075
1971,1.170035164
1972,1.128233993
1973,1.203671432
1974,1.19126294
1975,1.21828147
1976,1.208698735
1977,1.229511665
1978,1.142171346
1979,1.169062472
1980,1.202056421
1981,1.146549254
1982,1.143520187
1983,1.1866617
1984,1.227834202
1985,1.20658744
1986,1.181468737
1987,1.228439516
1988,1.274171654
1989,1.240622392
1990,1.176692892
1991,1.214878264
1992,1.219426845
1993,1.17667536
1994,1.1415515
1995,1.262385732
1996,1.170024612
1997,1.10666711
1998,1.193612518
1999,1.188187525
2000,1.239195128
2001,1.206384094
2002,1.17361962
2003,1.188858422
2004,1.184967912
2005,1.164848926
2006,1.207655142
2007,1.155942485
2008,1.222801193
2009,1.225352767
2010,1.243855228
2011,1.245530019
2012,1.211783553
2013,1.216841588
2014,1.229675546
2015,1.136856245
2016,1.23705127
2017,1.232216391
2018,1.200709167
2019,1.207193131
2020,1.23841414
2021,1.232055654
2022,1.260461934
2023,1.206514717
2024,1.159559845
2025,1.161837164
2026,1.206517407
2027,1.161407761
2028,1.1737314
2029,1.190684177
2030,1.173495617
2031,1.144792574
2032,1.214491557
2033,1.201237654
2034,1.18019957
2035,1.239171166
2036,1.239120439
2037,1.25437179
2038,1.171672787
2039,1.205961897
2040,1.190073545
2041,1.148571606
2042,1.251973099
2043,1.214664422
2044,1.258564895
2045,1.160851816
2046,1.275863752
2047,1.256215909
2048,1.188100938
2049,1.205692878
2050,1.161607353
2051,1.179792767
2052,1.207837552
2053,1.213105799
2054,1.221272551
2055,1.149671651
2056,1.211294285
2057,1.186999496
2058,1.197984122
2059,1.237275524
2060,1.17888188
2061,1.164589163
2062,1.103623219
2063,1.174848799
2064,1.174748102
2065,1.151506133
2066,1.219716962
2067,1.255364131
2068,1.18099983
2069,1.222739219
2070,1.157292516
2071,1.222980592
2072,1.181092753
2073,1.167395406
2074,1.201234252
2075,1.157386129
2076,1.203749598
2077,1.220857436
2078,1.213692869
2079,1.220640434
2080,1.202684336
2081,1.221792045
2082,1.199395832
2083,1.130429328
2084,1.189273766
2085,1.167869651
2086,1.201386915
2087,1.228294859
2088,1.188831242
2089,1.205552059
2090,1.227865783
2091,1.143891464
2092,1.151428545
2093,1.210066749
2094,1.222131316
2095,1.189764254
2096,1.267484294
2097,1.23895647
2098,1.113097291
2099,1.180369645
2100,1.267508181
2101,1.243578629
2102,1.237087679
2103,1.186334107
2104,1.26121183
2105,1.227837644
2106,1.193915244
2107,1.1990275
2108,1.211936883
2109,1.216927018
2110,1.295456374
2111,1.219775348
2112,1.239335241
2113,1.148941651
2114,1.260983531
2115,1.226985437
2116,1.18673136
2117,1.170983275
2118,1.222639713
2119,1.233737523
2120,1.20511254
2121,1.19329347
2122,1.212721804
2123,1.240421415
2124,1.253056529
2125,1.215369343
2126,1.2320777
2127,1.133109343
2128,1.219506376
2129,1.209769873
2130,1.176300362
2131,1.212474749
2132,1.181033629
2133,1.176527152
2134,1.139602068
2135,1.237615205
2136,1.188172587
2137,1.239246258
2138,1.139145707
2139,1.236707924
2140,1.175450067
2141,1.233254224
2142,1.191112822
2143,1.148263158
2144,1.206578608
2145,1.120247036
2146,1.289920424
2147,1.233775546
2148,1.233088117
2149,1.23623463
2150,1.295622986
2151,1.140037285
2152,1.229574517
2153,1.185516268
2154,1.249182872
2155,1.217265843
2156,1.176057432
2157,1.239527752
2158,1.206875539
2159,1.180591836
2160,1.184063955
2161,1.23103267
2162,1.210836851
2163,1.15302653
2164,1.186279188
2165,1.189306302
2166,1.216820015
2167,1.20682097
2168,1.121333322
2169,1.143843394
2170,1.203233089
2171,1.17172458
2172,1.220188536
2173,1.234925624
2174,1.146687156
2175,1.205659427
2176,1.213219624
2177,1.267252064
2178,1.19692514
2179,1.218148072
2180,1.253236281
2181,1.170231245
2182,1.234926983
2183,1.228065022
2184,1.266813755
2185,1.279726434
2186,1.215122304
2187,1.171500095
2188,1.228767685
2189,1.171077897
2190,1.25460393
2191,1.177011781
2192,1.252276798
2193,1.149099368
2194,1.206016571
2195,1.244387528
2196,1.176941123
2197,1.166618222
2198,1.19483309
2199,1.206970962
2200,1.255201498
2201,1.192917947
2202,1.203933098
2203,1.184274372
2204,1.208686795
2205,1.187897313
2206,1.167492609
2207,1.161726296
2208,1.168286205
2209,1.134083556
2210,1.272218895
2211,1.112369262
2212,1.206829803
2213,1.197728501
2214,1.194787803
2215,1.181364736
2216,1.302757172
2217,1.181384177
2218,1.172886137
2219,1.272005812
2220,1.247978202
2221,1.249823839
2222,1.143221964
2223,1.264703393
2224,1.177768514
2225,1.186073479
2226,1.162790917
2227,1.239564548
2228,1.207715306
2229,1.184646113
2230,1.18722363
2231,1.158345811
2232,1.161830845
2233,1.220398797
2234,1.212957901
2235,1.214421635
2236,1.173164594
2237,1.242863355
2238,1.195829396
2239,1.235940074
2240,1.205488981
2241,1.137156794
2242,1.200397105
2243,1.144825303
2244,1.187521496
2245,1.260125673
2246,1.273800949
2247,1.155320758
2248,1.217910554
2249,1.235607499
2250,1.15236643
2251,1.189270842
2252,1.245142447
2253,1.177500133
2254,1.279955493
2255,1.129999286
2256,1.184179379
2257,1.14289382
2258,1.169976486
2259,1.169290534
2260,1.235515003
2261,1.170183751
2262,1.24365395
2263,1.22461943
2264,1.287804838
2265,1.179132129
2266,1.289388107
2267,1.124990604
2268,1.190251474
2269,1.21424326
2270,1.229669525
2271,1.236850134
2272,1.237194521
2273,1.124739662
2274,1.189864815
2275,1.23035738
2276,1.225649726
2277,1.195205944
2278,1.218344698
2279,1.268633452
2280,1.170644844
2281,1.216032453
2282,1.210218473
2283,1.251637921
2284,1.174083617
2285,1.164812284
2286,1.203894711
2287,1.203180546
2288,1.172923342
2289,1.164511817
2290,1.183467993
2291,1.296369602
2292,1.225548973
2293,1.182614641
2294,1.201576579
2295,1.161174439
2296,1.234536125
2297,1.201753524
2298,1.190764345
2299,1.223680592
2300,1.229652297
2301,1.213755341
2302,1.20459025
2303,1.146952107
2304,1.187208031
2305,1.23196255
2306,1.238737574
2307,1.187228513
2308,1.210852357
2309,1.180986724
2310,1.142410533
2311,1.237798885
2312,1.171298995
2313,1.184851368
2314,1.234927575
2315,1.173755477
2316,1.156236078
2317,1.241213874
2318,1.176093272
2319,1.237067918
2320,1.198072318
2321,1.243089449
2322,1.178979141
2323,1.250262158
2324,1.271599261
2325,1.173131958
2326,1.157977517
2327,1.197885025
2328,1.214245015
2329,1.140821669
2330,1.127512815
2331,1.21562212
2332,1.224021216
2333,1.216531408
2334,1.144397749
2335,1.194830005
2336,1.167921834
2337,1.241283662
2338,1.196583142
2339,1.142633495
2340,1.219321041
2341,1.093771456
2342,1.224507253
2343,1.24206421
2344,1.279721367
2345,1.26580108
2346,1.190831352
2347,1.127989571
2348,1.176172562
2349,1.190287632
2350,1.219532106
2351,1.257349358
2352,1.207454106
2353,1.247993923
2354,1.142716418
2355,1.177185276
2356,1.154861952
2357,1.19592848
2358,1.216465378
2359,1.132159527
2360,1.220495395
2361,1.198921526
2362,1.225752995
2363,1.184243662
2364,1.278450988
2365,1.177332858
2366,1.148598841
2367,1.144236541
2368,1.207761721
2369,1.208446245
2370,1.218379642
2371,1.213164546
2372,1.235377292
2373,1.208988902
2374,1.297798963
2375,1.242377532
2376,1.158975537
2377,1.122857802
2378,1.157233171
2379,1.202888948
2380,1.268491735
2381,1.176462222
2382,1.141342542
2383,1.144115679
2384,1.198381006
2385,1.174496833
2386,1.170909942
2387,1.242660657
2388,1.254733162
2389,1.221335102
2390,1.20008561
2391,1.163365386
2392,1.245296704
2393,1.237863835
2394,1.183525411
2395,1.19012384
2396,1.073073135
2397,1.216623946
2398,1.249125957
2399,1.29415459
2400,1.191098338
2401,1.199417069
2402,1.196735947
2403,1.214208605
2404,1.197869173
2405,1.169738343
2406,1.230264591
2407,1.186782085
2408,1.224196747
2409,1.247414166
2410,1.158935052
2411,1.20526533
2412,1.154043731
2413,1.23426479
2414,1.259150845
2415,1.279400588
2416,1.161763583
2417,1.175945918
2418,1.263710511
2419,1.184636644
2420,1.224797525
2421,1.193100473
2422,1.177886246
2423,1.257138645
2424,1.224275467
2425,1.17117215
2426,1.184532917
2427,1.142024332
2428,1.149762061
2429,1.155913272
2430,1.160098128
2431,1.206986597
2432,1.205779121
2433,1.150978816
2434,1.190481103
2435,1.1609051
2436,1.229028279
2437,1.20900184
2438,1.160085763
2439,1.231354688
2440,1.212396684
2441,1.25910599
2442,1.20751275
2443,1.200978433
2444,1.202985454
2445,1.251468666
2446,1.226968527
2447,1.147134223
2448,1.217700626
2449,1.198660397
2450,1.189512172
2451,1.217588587
2452,1.144904409
2453,1.165151908
2454,1.160209068
2455,1.181710688
2456,1.170376284
2457,1.281724759
2458,1.239632539
2459,1.249739987
2460,1.249724069
2461,1.188351643
2462,1.145842773
2463,1.242696644
2464,1.217577923
2465,1.185538788
2466,1.176790482
2467,1.13081625
2468,1.154729966
2469,1.16095251
2470,1.171499805
2471,1.208382985
2472,1.192512549
2473,1.183584361
2474,1.262521027
2475,1.289897575
2476,1.140302147
2477,1.226211046
2478,1.225652304
2479,1.281315924
2480,1.164759223
2481,1.219721313
2482,1.179349797
2483,1.226480037
2484,1.225086442
2485,1.217981229
2486,1.175935401
2487,1.226326438
2488,1.118542543
2489,1.199709701
2490,1.184664409
2491,1.200340063
2492,1.242554864
2493,1.200856527
2494,1.127137484
2495,1.228405759
2496,1.210007987
2497,1.23780752
2498,1.23610194
2499,1.231752367
2500,1.204602702
2501,1.186955541
2502,1.2075621
2503,1.287851911
2504,1.208548628
2505,1.17316668
2506,1.199944726
2507,1.186809355
2508,1.220112593
2509,1.22577425
2510,1.191511734
2511,1.159479802
2512,1.161951896
2513,1.248370735
2514,1.18605051
2515,1.207478343
2516,1.159250831
2517,1.117692278
2518,1.201435194
2519,1.197385913
2520,1.155925895
2521,1.177303326
2522,1.192371238
2523,1.207226574
2524,1.179869299
2525,1.172651137
2526,1.210822448
2527,1.120129676
2528,1.181164702
2529,1.154611818
2530,1.176118174
2531,1.277201617
2532,1.267758362
2533,1.189862912
2534,1.22806128
2535,1.185965104
2536,1.184873381
2537,1.19688459
2538,1.170104536
2539,1.19901717
2540,1.243329436
2541,1.206070302
2542,1.157118359
2543,1.209113913
2544,1.253730049
2545,1.194338243
2546,1.210644844
2547,1.156195251
2548,1.215833864
2549,1.099323392
2550,1.16790884
2551,1.166448713
2552,1.265241055
2553,1.274403839
2554,1.172422607
2555,1.217609695
2556,1.166421644
2557,1.190394767
2558,1.174417475
2559,1.29362999
2560,1.193743781
2561,1.1627759
2562,1.167067255
2563,1.193623333
2564,1.239523782
2565,1.229038195
2566,1.210707771
2567,1.126595441
2568,1.224377495
2569,1.180180456
2570,1.180707612
2571,1.118932612
2572,1.236653362
2573,1.193106779
2574,1.162134256
2575,1.217028111
2576,1.158939265
2577,1.219680863
2578,1.176317451
2579,1.220168889
2580,1.16080018
2581,1.11348381
2582,1.214241418
2583,1.19593227
2584,1.203636125
2585,1.190287506
2586,1.246143489
2587,1.302374372
2588,1.157142818
2589,1.224515313
2590,1.246975009
2591,1.221994127
2592,1.168812481
2593,1.196022649
2594,1.189420379
2595,1.227976194
2596,1.123867889
2597,1.193781583
2598,1.262986083
2599,1.201356318
2600,1.212757338
2601,1.117078197
2602,1.20092023
2603,1.188932796
2604,1.132624539
2605,1.200834657
2606,1.208154575
2607,1.18512225
2608,1.225922739
2609,1.176375693
2610,1.195160523
2611,1.197352545
2612,1.124241564
2613,1.14398352
2614,1.214018075
2615,1.172426584
2616,1.251391761
2617,1.241960479
2618,1.230802012
2619,1.174125282
2620,1.243899219
2621,1.175690098
2622,1.180144167
2623,1.211999695
2624,1.124622191
2625,1.113461841
2626,1.200872664
2627,1.23655523
2628,1.244057445
2629,1.223208683
2630,1.206483356
2631,1.19569847
2632,1.189296129
2633,1.222293607
2634,1.202527408
2635,1.287742609
2636,1.167572585
2637,1.051910228
2638,1.21529676
2639,1.189210918
2640,1.215035295
2641,1.163709905
2642,1.128053957
2643,1.147700184
2644,1.052087319
2645,1.230250192
2646,1.175539512
2647,1.230838036
2648,1.187162443
2649,1.180744725
2650,1.180920379
2651,1.182653127
2652,1.231605567
2653,1.245008289
2654,1.224660054
2655,1.162373335
2656,1.269571122
2657,1.263427438
2658,1.2002384
2659,1.199915755
2660,1.253699914
2661,1.226884342
2662,1.120309744
2663,1.20839423
2664,1.227038748
2665,1.187226435
2666,1.209274534
2667,1.241948951
2668,1.234657859
2669,1.213287117
2670,1.222530711
2671,1.175745031
2672,1.150309432
2673,1.206160251
2674,1.171496855
2675,1.194855113
2676,1.226268923
2677,1.185279558
2678,1.232994119
2679,1.194509894
2680,1.22708466
2681,1.223473278
2682,1.200160048
2683,1.206671781
2684,1.234705962
2685,1.190617934
2686,1.194954029
2687,1.254774079
2688,1.230072427
2689,1.191803322
2690,1.13915512
2691,1.204407002
2692,1.196607569
2693,1.215150523
2694,1.21532406
2695,1.225815622
2696,1.113613637
2697,1.219262468
2698,1.176538349
2699,1.160025874
2700,1.179464292
2701,1.193935054
2702,1.201746004
2703,1.150953209
2704,1.220211635
2705,1.267183202
2706,1.218068907
2707,1.279557327
2708,1.225017799
2709,1.182915938
2710,1.207935653
2711,1.21755417
2712,1.168219271
2713,1.232289283
2714,1.266249419
2715,1.280604388
2716,1.212851852
2717,1.187390379
2718,1.244987652
2719,1.218571113
2720,1.226039632
2721,1.23313596
2722,1.180328066
2723,1.225499358
2724,1.197048581
2725,1.252507536
2726,1.230170792
2727,1.181205144
2728,1.200901348
2729,1.133580045
2730,1.191428459
2731,1.236367859
2732,1.204872741
2733,1.227209042
2734,1.145077442
2735,1.210211172
2736,1.179965657
2737,1.222588042
2738,1.150459035
2739,1.147749794
2740,1.121677247
2741,1.210995391
2742,1.20690157
2743,1.190261555
2744,1.188910158
2745,1.22187722
2746,1.169608556
2747,1.159888999
2748,1.057948106
2749,1.177633421
2750,1.183137177
2751,1.197851722
2752,1.179064441
2753,1.148708384
2754,1.161897416
2755,1.246740844
2756,1.208143461
2757,1.200766013
2758,1.215089208
2759,1.158120482
2760,1.213263391
2761,1.152819785
2762,1.211808373
2763,1.221931584
2764,1.165642091
2765,1.190512952
2766,1.29985408
2767,1.127042847
2768,1.158446971
2769,1.209276167
2770,1.237890734
2771,1.14550926
2772,1.236270129
2773,1.274625829
2774,1.161596884
2775,1.219922329
2776,1.197082432
2777,1.231517387
2778,1.211238389
2779,1.178342811
2780,1.149067417
2781,1.246068229
2782,1.175694203
2783,1.236107381
2784,1.233542361
2785,1.161327153
2786,1.216416376
2787,1.210412566
2788,1.198302193
2789,1.244516622
2790,1.159339224
2791,1.155453184
2792,1.224493121
2793,1.18869205
2794,1.138734249
2795,1.173333034
2796,1.12488851
2797,1.2136479
2798,1.263522351
2799,1.178063638
2800,1.178461117
2801,1.269914104
2802,1.237980727
2803,1.158913702
2804,1.206037079
2805,1.212064417
2806,1.168232432
2807,1.157444013
2808,1.261982499
2809,1.148764261
2810,1.253019421
2811,1.159922175
2812,1.239095088
2813,1.183855613
2814,1.226314369
2815,1.158769233
2816,1.145179584
2817,1.211230248
2818,1.135221041
2819,1.198522855
2820,1.112262465
2821,1.253720291
2822,1.179356004
2823,1.144400237
2824,1.234756238
2825,1.229872313
2826,1.172782972
2827,1.207226698
2828,1.247231052
2829,1.184590908
2830,1.232364774
2831,1.291538794
2832,1.199449099
2833,1.253827059
2834,1.208323661
2835,1.121949056
2836,1.226976045
2837,1.229894512
2838,1.224097052
2839,1.167566777
2840,1.186946907
2841,1.20685746
2842,1.273544923
2843,1.168560202
2844,1.19889893
2845,1.194439695
2846,1.220926665
2847,1.233229188
2848,1.195867192
2849,1.174513429
2850,1.263230716
2851,1.153377944
2852,1.223321992
2853,1.211007404
2854,1.28191343
2855,1.185203947
2856,1.195651975
2857,1.263976374
2858,1.176887156
2859,1.230041191
2860,1.263682466
2861,1.199660841
2862,1.177380644
2863,1.270656128
2864,1.157242098
2865,1.183303131
2866,1.282532508
2867,1.180732553
2868,1.225485988
2869,1.186097836
2870,1.191861866
2871,1.228342507
2872,1.04990206
2873,1.151557215
2874,1.120173648
2875,1.247595916
2876,1.186390295
2877,1.18390955
2878,1.152412948
2879,1.256854003
2880,1.161521734
2881,1.202806805
2882,1.153853717
2883,1.230790492
2884,1.155157404
2885,1.24599561
2886,1.175230717
2887,1.197012659
2888,1.222417809
2889,1.214337982
2890,1.230130708
2891,1.173367594
2892,1.225000877
2893,1.205186962
2894,1.208617025
2895,1.205310332
2896,1.246910709
2897,1.146627854
2898,1.236380064
2899,1.182483398
2900,1.299343414
2901,1.185938351
2902,1.170560172
2903,1.196031755
2904,1.216114034
2905,1.208378223
2906,1.239235344
2907,1.221494242
2908,1.129745126
2909,1.196285693
2910,1.184807879
2911,1.176371565
2912,1.142737451
2913,1.24043693
2914,1.255053581
2915,1.241954996
2916,1.170999711
2917,1.213167206
2918,1.160832834
2919,1.154886015
2920,1.219823895
2921,1.208454499
2922,1.184075389
2923,1.245398755
2924,1.121436964
2925,1.19695281
2926,1.153515208
2927,1.205253523
2928,1.158281286
2929,1.280470255
2930,1.230245962
2931,1.229484165
2932,1.214310411
2933,1.186444261
2934,1.16415525
2935,1.190318773
2936,1.169033195
2937,1.180713284
2938,1.190102392
2939,1.223990881
2940,1.139079371
2941,1.089821191
2942,1.154242794
2943,1.133356946
2944,1.231902259
2945,1.209948578
2946,1.09624622
2947,1.152934927
2948,1.235555068
2949,1.172379796
2950,1.195673263
2951,1.299521801
2952,1.209980979
2953,1.19494414
2954,1.216314063
2955,1.225632586
2956,1.176868363
2957,1.186238929
2958,1.214490239
2959,1.218115061
2960,1.209261667
2961,1.168244886
2962,1.217992072
2963,1.147457308
2964,1.139732599
2965,1.197869313
2966,1.126406185
2967,1.197879246
2968,1.209605671
2969,1.194168162
2970,1.278125447
2971,1.226088144
2972,1.20777962
2973,1.20091181
2974,1.1969536
2975,1.215089532
2976,1.181675355
2977,1.213290378
2978,1.2235789
2979,1.248083924
2980,1.248496704
2981,1.14756072
2982,1.218934124
2983,1.211951433
2984,1.198503344
2985,1.147311357
2986,1.140179273
2987,1.148166706
2988,1.196181152
2989,1.235567714
2990,1.15752306
2991,1.164938679
2992,1.107564292
2993,1.18019732
2994,1.211827274
2995,1.169554857
2996,1.181966866
2997,1.297011787
2998,1.145538836
2999,1.183970792
3000,1.216035714
3001,1.263679354
3002,1.26627023
3003,1.239794295
3004,1.216112514
3005,1.222413647
3006,1.210352007
3007,1.229037654
3008,1.210958633
3009,1.206462458
3010,1.153059749
3011,1.215083284
3012,1.241923968
3013,1.211690122
3014,1.238772204
3015,1.225333749
3016,1.11782629
3017,1.247257443
3018,1.172557608
3019,1.17873411
3020,1.20547255
3021,1.277713125
3022,1.208048148
3023,1.189094543
3024,1.17430089
3025,1.18075909
3026,1.185587007
3027,1.225471579
3028,1.209341703
3029,1.251545473
3030,1.169401341
3031,1.183248479
3032,1.305266446
3033,1.215703725
3034,1.159858413
3035,1.205708473
3036,1.248943695
3037,1.244708038
3038,1.181947697
3039,1.209948322
3040,1.199276788
3041,1.194644064
3042,1.168672687
3043,1.184850186
3044,1.21057098
3045,1.19788331
3046,1.197307092
3047,1.177692884
3048,1.199132559
3049,1.199936384
3050,1.224530155
3051,1.23790957
3052,1.252493583
3053,1.201531175
3054,1.217773354
3055,1.132595377
3056,1.205273269
3057,1.249268435
3058,1.167750922
3059,1.181091352
3060,1.193027124
3061,1.235338063
3062,1.212877931
3063,1.186174008
3064,1.216424434
3065,1.24877868
3066,1.180697289
3067,1.252070232
3068,1.181810364
3069,1.202014367
3070,1.235544714
3071,1.172885449
3072,1.176528092
3073,1.183199235
3074,1.175463186
3075,1.293815797
3076,1.265000874
3077,1.161163343
3078,1.177971484
3079,1.215303248
3080,1.190415288
3081,1.184589485
3082,1.137393452
3083,1.186840037
3084,1.11382093
3085,1.152959694
3086,1.197563694
3087,1.232166483
3088,1.17796622
3089,1.20018454
3090,1.250066004
3091,1.144554594
3092,1.189868147
3093,1.190444599
3094,1.231926415
3095,1.19704866
3096,1.188078665
3097,1.257140624
3098,1.18290628
3099,1.251455691
3100,1.244898019
3101,1.109493025
3102,1.191412831
3103,1.277414021
3104,1.214514616
3105,1.219607126
3106,1.162156153
3107,1.202371014
3108,1.165750484
3109,1.243758019
3110,1.231773165
3111,1.248428577
3112,1.229630715
3113,1.169946363
3114,1.230570012
3115,1.292935657
3116,1.170430908
3117,1.120812912
3118,1.070172115
3119,1.165331241
3120,1.234069056
3121,1.257871455
3122,1.149050509
3123,1.163709656
3124,1.214185684
3125,1.252749646
3126,1.154828794
3127,1.232918333
3128,1.228771841
3129,1.231550539
3130,1.19973097
3131,1.183802836
3132,1.25404293
3133,1.216083996
3134,1.152760267
3135,1.123649152
3136,1.26132107
3137,1.271545757
3138,1.269914195
3139,1.221772177
3140,1.215087739
3141,1.154763149
3142,1.230625255
3143,1.165916853
3144,1.14687364
3145,1.189317902
3146,1.244289356
3147,1.196193477
3148,1.20540922
3149,1.28686989
3150,1.173736443
3151,1.153025033
3152,1.172886176
3153,1.283986795
3154,1.16986048
3155,1.233912739
3156,1.190593638
3157,1.160975331
3158,1.197892447
3159,1.192504896
3160,1.27593014
3161,1.20575088
3162,1.209160118
3163,1.12841979
3164,1.131942492
3165,1.17414321
3166,1.169570768
3167,1.257311892
3168,1.18484869
3169,1.233384527
3170,1.212135462
3171,1.233164794
3172,1.182110446
3173,1.201092127
3174,1.185308789
3175,1.137455618
3176,1.195230728
3177,1.114141034
3178,1.181757893
3179,1.222852925
3180,1.120121944
3181,1.212331954
3182,1.191794639
3183,1.170227051
3184,1.208657992
3185,1.26485051
3186,1.195332759
3187,1.209383018
3188,1.107863684
3189,1.252563347
3190,1.166550134
3191,1.131431196
3192,1.239311729
3193,1.177290425
3194,1.197357612
3195,1.180738545
3196,1.214463415
3197,1.137218524
3198,1.246060759
3199,1.204321573
3200,1.203205597
3201,1.211174384
3202,1.268702887
3203,1.156778079
3204,1.16347529
3205,1.203404649
3206,1.176287983
3207,1.207209385
3208,1.179922488
3209,1.174286733
3210,1.203737366
3211,1.197106864
3212,1.234397011
3213,1.20147568
3214,1.181423989
3215,1.195323147
3216,1.22556983
3217,1.236610686
3218,1.142040112
3219,1.211286856
3220,1.207723346
3221,1.277721975
3222,1.195906833
3223,1.217559196
3224,1.194614815
3225,1.202304904
3226,1.155407855
3227,1.224088483
3228,1.209352666
3229,1.159959589
3230,1.154314613
3231,1.270427717
3232,1.217842393
3233,1.162851018
3234,1.207814311
3235,1.244230257
3236,1.227695931
3237,1.250493125
3238,1.166372273
3239,1.161954983
3240,1.207705991
3241,1.241290334
3242,1.203838589
3243,1.25053168
3244,1.182254677
3245,1.222979042
3246,1.161228176
3247,1.176920375
3248,1.241142138
3249,1.212410495
3250,1.219839877
3251,1.136401047
3252,1.157762713
3253,1.228881037
3254,1.18869052
3255,1.171816095
3256,1.278327206
3257,1.172059615
3258,1.142924663
3259,1.272938476
3260,1.210659153
3261,1.115082338
3262,1.125731605
3263,1.277321731
3264,1.242466281
3265,1.225677979
3266,1.199586443
3267,1.099359207
3268,1.225979497
3269,1.13678126
3270,1.228459539
3271,1.233119417
3272,1.2793114
3273,1.113537762
3274,1.163275081
3275,1.259013761
3276,1.268213156
3277,1.203638835
3278,1.230037883
3279,1.220403024
3280,1.256551387
3281,1.199910425
3282,1.192541209
3283,1.192064892
3284,1.166578673
3285,1.203554978
3286,1.207009864
3287,1.222260185
3288,1.181411053
3289,1.221527871
3290,1.190940377
3291,1.212706132
3292,1.250195795
3293,1.192952201
3294,1.173376989
3295,1.215552489
3296,1.247724103
3297,1.234573688
3298,1.257666524
3299,1.263496434
3300,1.22342376
3301,1.155360161
3302,1.126998239
3303,1.142734599
3304,1.160119882
3305,1.216288616
3306,1.185947946
3307,1.190930373
3308,1.186086059
3309,1.234511406
3310,1.246395582
3311,1.231238546
3312,1.210785055
3313,1.235915019
3314,1.171123606
3315,1.209111293
3316,1.234000998
3317,1.136258255
3318,1.153786983
3319,1.218617307
3320,1.176272626
3321,1.153634925
3322,1.193004059
3323,1.191345888
3324,1.263744095
3325,1.234044588
3326,1.242675726
3327,1.196759993
3328,1.224156157
3329,1.245199834
3330,1.161372453
3331,1.219153196
3332,1.183699917
3333,1.262981268
3334,1.232654077
3335,1.164497317
3336,1.187869589
3337,1.214082824
3338,1.191057045
3339,1.224402662
3340,1.20475635
3341,1.1635468
3342,1.25261857
3343,1.191862511
3344,1.256435865
3345,1.228643644
3346,1.268971562
3347,1.252379578
3348,1.216906927
3349,1.196619272
3350,1.187314711
3351,1.189621212
3352,1.212646644
3353,1.100205146
3354,1.200742795
3355,1.171892052
3356,1.127490788
3357,1.250429293
3358,1.149444092
3359,1.088048846
3360,1.210991669
3361,1.241713644
3362,1.209614959
3363,1.214543072
3364,1.142439152
3365,1.179939416
3366,1.265291119
3367,1.225873197
3368,1.17538465
3369,1.190111156
3370,1.179528531
3371,1.177807684
3372,1.225241296
3373,1.247519753
3374,1.217925178
3375,1.142358559
3376,1.279649621
3377,1.231656711
3378,1.113887165
3379,1.161995268
3380,1.209397338
3381,1.176137158
3382,1.198353038
3383,1.268511692
3384,1.162802977
3385,1.186249834
3386,1.192621
3387,1.251933534
3388,1.179529893
3389,1.202881578
3390,1.195413102
3391,1.206250009
3392,1.242792643
3393,1.255737357
3394,1.245817149
3395,1.208386026
3396,1.171772646
3397,1.227866393
3398,1.234056838
3399,1.192156065
3400,1.15852575
3401,1.167633508
3402,1.229283984
3403,1.143516251
3404,1.201784845
3405,1.195417812
3406,1.217226938
3407,1.206355669
3408,1.186844348
3409,1.254615113
3410,1.187588171
3411,1.130999131
3412,1.134627639
3413,1.175520266
3414,1.237987238
3415,1.196165124
3416,1.199524454
3417,1.142427154
3418,1.183959655
3419,1.183462472
3420,1.203503398
3421,1.220369737
3422,1.222714491
3423,1.233054289
3424,1.219122768
3425,1.185739066
3426,1.25251403
3427,1.18309743
3428,1.221663022
3429,1.181079361
3430,1.181585399
3431,1.155755919
3432,1.154308174
3433,1.133984909
3434,1.286524169
3435,1.198394566
3436,1.183948713
3437,1.209469478
3438,1.145456651
3439,1.243518712
3440,1.206467099
3441,1.189232018
3442,1.204612933
3443,1.23332769
3444,1.193161164
3445,1.132199887
3446,1.177038928
3447,1.210645373
3448,1.162505766
3449,1.18245447
3450,1.179780495
3451,1.202463851
3452,1.182759375
3453,1.199893575
3454,1.181913083
3455,1.236149027
3456,1.246474464
3457,1.20889837
3458,1.192630443
3459,1.231244632
3460,1.273450852
3461,1.134334489
3462,1.238402375
3463,1.132053538
3464,1.210096451
3465,1.202098116
3466,1.170971168
3467,1.236618096
3468,1.135413349
3469,1.170819316
3470,1.207454153
3471,1.125252374
3472,1.192220411
3473,1.132620729
3474,1.245418564
3475,1.236710166
3476,1.235414954
3477,1.193205561
3478,1.224872282
3479,1.202455954
3480,1.227232029
3481,1.221790239
3482,1.225613867
3483,1.193276974
3484,1.220773107
3485,1.207984856
3486,1.220148344
3487,1.157049237
3488,1.196660744
3489,1.236864729
3490,1.167267013
3491,1.238119237
3492,1.218604014
3493,1.165995634
3494,1.181240639
3495,1.209281941
3496,1.24150434
3497,1.187034094
3498,1.221336075
3499,1.218347835
3500,1.113486147
3501,1.168452016
3502,1.243305506
3503,1.169587703
3504,1.270031069
3505,1.181860761
3506,1.214598579
3507,1.217989517
3508,1.246198291
3509,1.224276855
3510,1.241179564
3511,1.215453433
3512,1.202010659
3513,1.197178349
3514,1.122988893
3515,1.195413887
3516,1.211539428
3517,1.292125856
3518,1.185373096
3519,1.093082869
3520,1.217274533
3521,1.184909231
3522,1.152788557
3523,1.246966967
3524,1.196869791
3525,1.275227406
3526,1.258651727
3527,1.196260957
3528,1.160142019
3529,1.280938028
3530,1.165169265
3531,1.255946717
3532,1.198083842
3533,1.202275434
3534,1.195814105
3535,1.169751277
3536,1.255475564
3537,1.190357948
3538,1.196714263
3539,1.146899752
3540,1.21792106
3541,1.194689947
3542,1.191985586
3543,1.168399686
3544,1.258483852
3545,1.201980931
3546,1.180108637
3547,1.159459055
3548,1.194996623
3549,1.192435884
3550,1.198168353
3551,1.233267729
3552,1.242250181
3553,1.187883833
3554,1.169643508
3555,1.112475898
3556,1.16927854
3557,1.141907658
3558,1.17621544
3559,1.186892395
3560,1.217909067
3561,1.190744934
3562,1.234077372
3563,1.204400367
3564,1.190662417
3565,1.283646284
3566,1.236894484
3567,1.201689112
3568,1.213609057
3569,1.155946705
3570,1.200670639
3571,1.168956283
3572,1.286801
3573,1.191720582
3574,1.253396447
3575,1.235275702
3576,1.184040072
3577,1.189199691
3578,1.191767904
3579,1.185652388
3580,1.133865251
3581,1.188839293
3582,1.167376692
3583,1.168201418
3584,1.194668614
3585,1.257403614
3586,1.171577373
3587,1.178091958
3588,1.188265284
3589,1.167054129
3590,1.214851444
3591,1.159523566
3592,1.198497218
3593,1.214418391
3594,1.235441779
3595,1.220293593
3596,1.202588967
3597,1.148029309
3598,1.201196435
3599,1.136639488
3600,1.191950507
3601,1.157760289
3602,1.153823901
3603,1.21486546
3604,1.152621869
3605,1.190058281
3606,1.179874201
3607,1.190521756
3608,1.193955433
3609,1.221208207
3610,1.223706727
3611,1.223761131
3612,1.180424627
3613,1.195883659
3614,1.22632048
3615,1.194105992
3616,1.218722389
3617,1.112195151
3618,1.179365393
3619,1.245575406
3620,1.168441017
3621,1.171401919
3622,1.206500115
3623,1.257889234
3624,1.060388804
3625,1.236495034
3626,1.154472165
3627,1.188215994
3628,1.22659164
3629,1.172023794
3630,1.179613126
3631,1.159386546
3632,1.173583411
3633,1.173906287
3634,1.141634776
3635,1.185919782
3636,1.236147545
3637,1.213455964
3638,1.178583927
3639,1.14134448
3640,1.26786486
3641,1.231110706
3642,1.175341726
3643,1.208156766
3644,1.200851045
3645,1.18576663
3646,1.171717339
3647,1.186122175
3648,1.200842141
3649,1.128862855
3650,1.241934618
3651,1.19421262
3652,1.220080127
3653,1.193433171
3654,1.148441518
3655,1.219962891
3656,1.159842728
3657,1.224148286
3658,1.229715776
3659,1.150643113
3660,1.156668492
3661,1.193128349
3662,1.171870226
3663,1.236596432
3664,1.206796119
3665,1.242182423
3666,1.264018096
3667,1.213083747
3668,1.201809421
3669,1.211979916
3670,1.108204309
3671,1.102724339
3672,1.211495157
3673,1.22533705
3674,1.237294693
3675,1.168374117
3676,1.214286376
3677,1.231954594
3678,1.205509483
3679,1.189347967
3680,1.171750455
3681,1.201399098
3682,1.218368694
3683,1.22571158
3684,1.227808152
3685,1.193955676
3686,1.210549726
3687,1.162870822
3688,1.141857215
3689,1.212645224
3690,1.171469497
3691,1.188717
3692,1.19760567
3693,1.238079078
3694,1.270670337
3695,1.255682522
3696,1.210297619
3697,1.179182503
3698,1.176544039
3699,1.185256961
3700,1.296779511
3701,1.215004515
3702,1.190826155
3703,1.203317671
3704,1.163189932
3705,1.170699723
3706,1.159547912
3707,1.291952026
3708,1.186910077
3709,1.22913286
3710,1.215260455
3711,1.156783641
3712,1.246190878
3713,1.193147103
3714,1.20860379
3715,1.206026201
3716,1.149806829
3717,1.218539868
3718,1.218851842
3719,1.246700787
3720,1.162589246
3721,1.251314505
3722,1.13665449
3723,1.21290685
3724,1.210264223
3725,1.188587942
3726,1.216562477
3727,1.215600688
3728,1.199232932
3729,1.238583294
3730,1.178344655
3731,1.214882576
3732,1.175743117
3733,1.213390019
3734,1.272147578
3735,1.238002269
3736,1.19658923
3737,1.229149026
3738,1.20428329
3739,1.267173798
3740,1.247349185
3741,1.185362188
3742,1.146854742
3743,1.142275298
3744,1.251396514
3745,1.186917949
3746,1.20701331
3747,1.276426485
3748,1.191597938
3749,1.210054597
3750,1.189873068
3751,1.219603569
3752,1.254567609
3753,1.176564552
3754,1.172314718
3755,1.188808071
3756,1.196845039
3757,1.185068574
3758,1.218041845
3759,1.248197132
3760,1.174353421
3761,1.256048429
3762,1.185506142
3763,1.135169803
3764,1.227766145
3765,1.194555062
3766,1.149185999
3767,1.205149207
3768,1.219509056
3769,1.271401264
3770,1.124597174
3771,1.219075057
3772,1.225311843
3773,1.145194209
3774,1.206760658
3775,1.167772947
3776,1.189267242
3777,1.185527757
3778,1.208417181
3779,1.209499409
3780,1.224321671
3781,1.089618096
3782,1.167506788
3783,1.235186392
3784,1.26263081
3785,1.187729149
3786,1.206664214
3787,1.262717201
3788,1.172186235
3789,1.183500433
3790,1.265134732
3791,1.18557763
3792,1.233159052
3793,1.214882322
3794,1.174271778
3795,1.176197811
3796,1.132499898
3797,1.225151221
3798,1.1645395
3799,1.192916426
3800,1.272347384
3801,1.209630479
3802,1.214157975
3803,1.273007161
3804,1.148701994
3805,1.243595357
3806,1.201768831
3807,1.176670376
3808,1.17491132
3809,1.218766122
3810,1.135886355
3811,1.260848274
3812,1.270869006
3813,1.114588764
3814,1.216257186
3815,1.209193296
3816,1.175497394
3817,1.168248502
3818,1.18399123
3819,1.293343804
3820,1.185795194
3821,1.209377982
3822,1.238257165
3823,1.181844648
3824,1.196220848
3825,1.157518054
3826,1.180354553
3827,1.184045371
3828,1.241805615
3829,1.241355664
3830,1.155538192
3831,1.176609131
3832,1.16423808
3833,1.223599455
3834,1.266543595
3835,1.199363041
3836,1.290072888
3837,1.262953821
3838,1.199979168
3839,1.194773587
3840,1.186319268
3841,1.227749721
3842,1.208983771
3843,1.175328061
3844,1.27961502
3845,1.113780106
3846,1.192282653
3847,1.241628598
3848,1.255512701
3849,1.197192597
3850,1.18338789
3851,1.192222699
3852,1.20504115
3853,1.170042397
3854,1.188407481
3855,1.188227721
3856,1.205620021
3857,1.163562326
3858,1.233766664
3859,1.191919478
3860,1.153176682
3861,1.209779046
3862,1.163453292
3863,1.15394667
3864,1.191493898
3865,1.222093576
3866,1.09556689
3867,1.234342467
3868,1.222929762
3869,1.187865782
3870,1.224736137
3871,1.245636335
3872,1.101936602
3873,1.162313112
3874,1.187423557
3875,1.193286365
3876,1.254420073
3877,1.199707792
3878,1.208139583
3879,1.248067616
3880,1.150594064
3881,1.230367975
3882,1.208930429
3883,1.226944791
3884,1.194796996
3885,1.165632494
3886,1.19080259
3887,1.147626012
3888,1.245621942
3889,1.140189396
3890,1.171311372
3891,1.154649601
3892,1.149481343
3893,1.212478737
3894,1.188910949
3895,1.195783948
3896,1.164939323
3897,1.220214641
3898,1.167874172
3899,1.147996564
3900,1.178507265
3901,1.164791966
3902,1.174692117
3903,1.217994775
3904,1.284529172
3905,1.165964473
3906,1.156432491
3907,1.204734465
3908,1.190738042
3909,1.151454461
3910,1.209576807
3911,1.182446721
3912,1.178663195
3913,1.247147635
3914,1.244056085
3915,1.244557162
3916,1.255521759
3917,1.259052602
3918,1.204529818
3919,1.191390263
3920,1.236345039
3921,1.235927158
3922,1.256383312
3923,1.212309382
3924,1.151889026
3925,1.215020875
3926,1.259413584
3927,1.217352905
3928,1.194669334
3929,1.192043305
3930,1.181780987
3931,1.179198744
3932,1.125707497
3933,1.234624211
3934,1.2351051
3935,1.228483342
3936,1.201499608
3937,1.19892954
3938,1.167008403
3939,1.254413598
3940,1.266620444
3941,1.127478649
3942,1.137552144
3943,1.280027324
3944,1.151940228
3945,1.154626059
3946,1.241501879
3947,1.175164711
3948,1.211421442
3949,1.171651697
3950,1.293385377
3951,1.122391562
3952,1.208120726
3953,1.195128169
3954,1.145300202
3955,1.218110098
3956,1.205373639
3957,1.220270231
3958,1.138876912
3959,1.19543205
3960,1.170006122
3961,1.251152545
3962,1.151093695
3963,1.212885832
3964,1.277629142
3965,1.210573626
3966,1.236237457
3967,1.191637506
3968,1.117906986
3969,1.232220905
3970,1.220857831
3971,1.249536596
3972,1.176413376
3973,1.230421189
3974,1.206184133
3975,1.176221788
3976,1.164417937
3977,1.235153547
3978,1.226372403
3979,1.163680209
3980,1.153666246
3981,1.262935187
3982,1.229610898
3983,1.240199885
3984,1.237767876
3985,1.15323549
3986,1.183272658
3987,1.1526686
3988,1.193154048
3989,1.171092299
3990,1.206235235
3991,1.171739354
3992,1.15805125
3993,1.199868806
3994,1.230626388
3995,1.197536818
3996,1.147577599
3997,1.130630563
3998,1.222377787
3999,1.253857593
4000,1.187696577
