Raman Shift,Intensity 
400,8.395675684
401,8.399607484
402,8.391131511
403,8.309132442
404,8.436081677
405,8.369914744
406,8.386140604
407,8.345157332
408,8.431711995
409,8.381614537
410,8.386728572
411,8.366661086
412,8.403207175
413,8.390849206
414,8.349525517
415,8.427796984
416,8.396453334
417,8.389838955
418,8.397572696
419,8.415251302
420,8.354679982
421,8.392002863
422,8.418941568
423,8.43764519
424,8.367077353
425,8.42409924
426,8.420261607
427,8.408508074
428,8.382810303
429,8.404830148
430,8.429118227
431,8.36825475
432,8.419035786
433,8.431116743
434,8.427257033
435,8.333821492
436,8.402343092
437,8.374906774
438,8.375918927
439,8.362144832
440,8.410597238
441,8.335969335
442,8.402710821
443,8.429240275
444,8.378160753
445,8.418773399
446,8.448002105
447,8.366368824
448,8.360124422
449,8.369154176
450,8.414702886
451,8.414284716
452,8.406506922
453,8.425179766
454,8.365834962
455,8.439825409
456,8.455826101
457,8.410508056
458,8.388710758
459,8.466710969
460,8.403822985
461,8.389494311
462,8.379987443
463,8.371449065
464,8.402553272
465,8.36412661
466,8.38945588
467,8.364287856
468,8.328029565
469,8.398893624
470,8.407690037
471,8.357836174
472,8.406732811
473,8.450592864
474,8.371571705
475,8.401284925
476,8.365986393
477,8.349111667
478,8.38822057
479,8.406096358
480,8.385588465
481,8.374446113
482,8.365455475
483,8.415856729
484,8.371844213
485,8.326479571
486,8.392770661
487,8.398421423
488,8.362690561
489,8.399628755
490,8.428506534
491,8.430575785
492,8.393898396
493,8.412531473
494,8.359885711
495,8.398240448
496,8.396945182
497,8.288728314
498,8.415424056
499,8.447319188
500,8.38053252
501,8.397289458
502,8.461850034
503,8.399480976
504,8.336509344
505,8.409514861
506,8.418961151
507,8.37167529
508,8.415864685
509,8.447051794
510,8.425578322
511,8.384449165
512,8.442740581
513,8.430831919
514,8.382282037
515,8.447364064
516,8.410945526
517,8.405630408
518,8.399853683
519,8.399297275
520,8.450234306
521,8.369146038
522,8.440725301
523,8.392002865
524,8.400179464
525,8.405416839
526,8.378170616
527,8.365050838
528,8.369962173
529,8.374865035
530,8.396124389
531,8.37113624
532,8.382612333
533,8.423847359
534,8.348658946
535,8.407128588
536,8.375137677
537,8.415743282
538,8.418092344
539,8.388601968
540,8.402901558
541,8.412900375
542,8.41412977
543,8.398111837
544,8.411935205
545,8.429813881
546,8.420431344
547,8.392859813
548,8.423449394
549,8.42964384
550,8.325027513
551,8.425544685
552,8.398775902
553,8.420450456
554,8.386472234
555,8.320918275
556,8.363659552
557,8.403743087
558,8.373716869
559,8.400000816
560,8.356046398
561,8.379926277
562,8.404223563
563,8.400095002
564,8.377475214
565,8.389199343
566,8.423880749
567,8.399796827
568,8.439900705
569,8.406010525
570,8.402513111
571,8.419553023
572,8.378301422
573,8.390835097
574,8.398670145
575,8.395439108
576,8.394330395
577,8.423238272
578,8.373613591
579,8.390759444
580,8.412136275
581,8.392751236
582,8.409698091
583,8.399841032
584,8.399876773
585,8.409664495
586,8.41501839
587,8.335851523
588,8.411368619
589,8.410581427
590,8.414360388
591,8.383133839
592,8.40584168
593,8.337626044
594,8.37389531
595,8.384930801
596,8.37501655
597,8.392402017
598,8.439730769
599,8.362987106
600,8.423347088
601,8.391766632
602,8.417404764
603,8.403056681
604,8.369820978
605,8.3996676
606,8.398479289
607,8.388563567
608,8.391406407
609,8.370897673
610,8.387571607
611,8.404503146
612,8.401855845
613,8.364353944
614,8.438588493
615,8.391219556
616,8.439557828
617,8.373563263
618,8.391835147
619,8.3423988
620,8.349864261
621,8.346318505
622,8.418101708
623,8.391182824
624,8.403502984
625,8.347002133
626,8.398216747
627,8.385510671
628,8.370840754
629,8.379014369
630,8.391108985
631,8.447440879
632,8.388816551
633,8.371091393
634,8.431306429
635,8.37709928
636,8.427062845
637,8.407767743
638,8.437993089
639,8.44399414
640,8.389452347
641,8.399344035
642,8.355155847
643,8.415401096
644,8.42290757
645,8.341007997
646,8.393399097
647,8.443346885
648,8.414609967
649,8.406728907
650,8.383739391
651,8.417592899
652,8.406466971
653,8.39600231
654,8.356898574
655,8.382657195
656,8.408545665
657,8.407269121
658,8.365276577
659,8.41757135
660,8.400528419
661,8.43852319
662,8.392082431
663,8.405373181
664,8.388038511
665,8.43165306
666,8.393287144
667,8.425255668
668,8.432457855
669,8.412252215
670,8.421332577
671,8.420887611
672,8.416987125
673,8.384727146
674,8.425150007
675,8.416736974
676,8.397885507
677,8.373893491
678,8.409509856
679,8.373889057
680,8.431985642
681,8.407302324
682,8.406797338
683,8.448431207
684,8.388211064
685,8.406547163
686,8.428052063
687,8.374464657
688,8.457439358
689,8.40404142
690,8.363594894
691,8.391945628
692,8.385730873
693,8.437062577
694,8.410442466
695,8.402090398
696,8.407553443
697,8.41046978
698,8.370382813
699,8.454872726
700,8.382926558
701,8.42145211
702,8.394076175
703,8.4160667
704,8.379263894
705,8.391980006
706,8.387171186
707,8.430171924
708,8.372017939
709,8.416579726
710,8.420382635
711,8.403302587
712,8.387720558
713,8.429769913
714,8.408552535
715,8.413459811
716,8.335040969
717,8.369049856
718,8.429040076
719,8.37882714
720,8.379519016
721,8.392655965
722,8.379477181
723,8.345807486
724,8.454520282
725,8.387886497
726,8.398801148
727,8.395580914
728,8.43453469
729,8.382465236
730,8.379476155
731,8.426055429
732,8.417740288
733,8.359975856
734,8.37778633
735,8.376242307
736,8.364753318
737,8.396951424
738,8.34783446
739,8.38543784
740,8.414203275
741,8.388707464
742,8.416230384
743,8.396582476
744,8.460417079
745,8.344659853
746,8.317239155
747,8.393158233
748,8.431017618
749,8.385266956
750,8.395813426
751,8.445448453
752,8.447478469
753,8.397258768
754,8.402222709
755,8.366806803
756,8.429923472
757,8.444852265
758,8.404986516
759,8.442673625
760,8.373337995
761,8.361269759
762,8.419864343
763,8.386566872
764,8.359522381
765,8.39386145
766,8.404638317
767,8.432454428
768,8.368273085
769,8.361574127
770,8.431534302
771,8.39686415
772,8.374086286
773,8.436771556
774,8.391442832
775,8.411048093
776,8.388560755
777,8.408555462
778,8.368503262
779,8.383889432
780,8.344560592
781,8.410501381
782,8.370517658
783,8.419384494
784,8.377173227
785,8.367365112
786,8.434949275
787,8.407242231
788,8.391497019
789,8.368879887
790,8.432887936
791,8.397282009
792,8.41055806
793,8.396547742
794,8.389742805
795,8.390405167
796,8.379879859
797,8.367635373
798,8.395483195
799,8.351573638
800,8.404815587
801,8.398706177
802,8.424055505
803,8.390714697
804,8.427393509
805,8.373773622
806,8.396368995
807,8.355917301
808,8.391398247
809,8.423468341
810,8.491606709
811,8.436767787
812,8.352969259
813,8.409327782
814,8.41786803
815,8.366606545
816,8.405397648
817,8.338182549
818,8.36233852
819,8.411132593
820,8.431067965
821,8.358612266
822,8.394450237
823,8.426506792
824,8.400905657
825,8.376512254
826,8.454825942
827,8.353490599
828,8.402871121
829,8.410077536
830,8.350290377
831,8.402798079
832,8.420607809
833,8.373217469
834,8.449994697
835,8.388236294
836,8.431964095
837,8.435058083
838,8.418800541
839,8.390632283
840,8.39638199
841,8.410102662
842,8.40391142
843,8.449693338
844,8.413704774
845,8.401623293
846,8.422834925
847,8.386105316
848,8.386994844
849,8.377751702
850,8.471980007
851,8.407248719
852,8.344127364
853,8.387175806
854,8.432556661
855,8.365766348
856,8.355367871
857,8.405540198
858,8.423604474
859,8.391429919
860,8.374280388
861,8.396454189
862,8.441931614
863,8.449128772
864,8.431023932
865,8.393105834
866,8.358960641
867,8.371830511
868,8.397655984
869,8.362909769
870,8.421638022
871,8.371853333
872,8.415856177
873,8.40057783
874,8.355324775
875,8.384613048
876,8.385592814
877,8.415932619
878,8.394544955
879,8.387879901
880,8.341812154
881,8.426593734
882,8.330171326
883,8.39453516
884,8.371846306
885,8.383412844
886,8.440551823
887,8.354173804
888,8.397282004
889,8.426358818
890,8.353078238
891,8.384609598
892,8.426061219
893,8.411913351
894,8.406543189
895,8.378648355
896,8.374078588
897,8.403651594
898,8.363672799
899,8.354460603
900,8.426401339
901,8.38048012
902,8.407995591
903,8.403177623
904,8.464939627
905,8.402044726
906,8.411716808
907,8.382061087
908,8.415038727
909,8.391528949
910,8.38024041
911,8.383152697
912,8.344750599
913,8.40891737
914,8.468507272
915,8.37259448
916,8.451045848
917,8.399103731
918,8.391938187
919,8.433681099
920,8.361444325
921,8.427149772
922,8.404269139
923,8.348579537
924,8.408572912
925,8.432940358
926,8.430265944
927,8.383010488
928,8.411348373
929,8.430860977
930,8.411701444
931,8.413743445
932,8.344059567
933,8.405319418
934,8.421811191
935,8.367228107
936,8.385525381
937,8.453540262
938,8.401858347
939,8.403607475
940,8.402182115
941,8.433212246
942,8.379504673
943,8.390862068
944,8.430905939
945,8.410520894
946,8.341019908
947,8.409285712
948,8.447542145
949,8.380707266
950,8.418767677
951,8.456933361
952,8.394399039
953,8.39653661
954,8.336280698
955,8.421158753
956,8.334988753
957,8.44108854
958,8.415238
959,8.339864887
960,8.374407859
961,8.442991974
962,8.398937122
963,8.451021402
964,8.402262923
965,8.380678527
966,8.388786357
967,8.40353899
968,8.409426657
969,8.375204587
970,8.408517033
971,8.463270022
972,8.424015956
973,8.36968351
974,8.328182179
975,8.391352796
976,8.414641345
977,8.33670303
978,8.40094666
979,8.427157605
980,8.40737016
981,8.351960676
982,8.334812451
983,8.426810184
984,8.382778206
985,8.398707476
986,8.375987379
987,8.385699077
988,8.391568519
989,8.351409265
990,8.375996779
991,8.427616615
992,8.431439535
993,8.400149842
994,8.418350208
995,8.359796665
996,8.430314418
997,8.34961914
998,8.382904909
999,8.405042623
1000,8.46509877
1001,8.41600078
1002,8.36500831
1003,8.370230181
1004,8.38938859
1005,8.437722548
1006,8.410966697
1007,8.402067777
1008,8.358815416
1009,8.384749359
1010,8.380967659
1011,8.400501026
1012,8.319789323
1013,8.404552116
1014,8.371520638
1015,8.339121643
1016,8.349039436
1017,8.407827207
1018,8.411014188
1019,8.379821141
1020,8.439156108
1021,8.389545268
1022,8.463268431
1023,8.34856758
1024,8.358371307
1025,8.368365825
1026,8.376742877
1027,8.431696359
1028,8.444013306
1029,8.402633915
1030,8.414767906
1031,8.399485494
1032,8.404667523
1033,8.404213851
1034,8.407261272
1035,8.402863272
1036,8.421415265
1037,8.432665685
1038,8.386124895
1039,8.351941757
1040,8.374924088
1041,8.410951702
1042,8.430369011
1043,8.354287069
1044,8.392379324
1045,8.383014152
1046,8.38218018
1047,8.430111231
1048,8.362618039
1049,8.414052295
1050,8.390796294
1051,8.410887897
1052,8.357678941
1053,8.401776847
1054,8.429163242
1055,8.432999216
1056,8.383840832
1057,8.39985977
1058,8.459970638
1059,8.408151038
1060,8.386376894
1061,8.424451744
1062,8.397220587
1063,8.364629863
1064,8.401684176
1065,8.397651057
1066,8.394442853
1067,8.344908657
1068,8.421282559
1069,8.389828379
1070,8.382118157
1071,8.450278655
1072,8.404177949
1073,8.394058986
1074,8.395114338
1075,8.35408827
1076,8.35774353
1077,8.401571246
1078,8.321739153
1079,8.385616006
1080,8.396896079
1081,8.378539361
1082,8.401359988
1083,8.43349143
1084,8.42849756
1085,8.390249498
1086,8.401436871
1087,8.355299691
1088,8.414522897
1089,8.428814915
1090,8.385197385
1091,8.437078725
1092,8.407440694
1093,8.418106585
1094,8.376142297
1095,8.429484155
1096,8.385255733
1097,8.397940057
1098,8.449812006
1099,8.380889511
1100,8.334191154
1101,8.368634805
1102,8.425442412
1103,8.434519254
1104,8.437424236
1105,8.421371038
1106,8.404371011
1107,8.392509153
1108,8.352205169
1109,8.403535944
1110,8.396053524
1111,8.409738107
1112,8.441786264
1113,8.434806341
1114,8.372307025
1115,8.380339099
1116,8.406296276
1117,8.418243399
1118,8.423747485
1119,8.433656537
1120,8.37458989
1121,8.453580689
1122,8.392260737
1123,8.38512206
1124,8.369605616
1125,8.416126564
1126,8.346380274
1127,8.404778514
1128,8.34323256
1129,8.400249086
1130,8.395687414
1131,8.425409865
1132,8.425666977
1133,8.371643383
1134,8.40815906
1135,8.442074068
1136,8.396482025
1137,8.421848371
1138,8.408731476
1139,8.418942666
1140,8.383849031
1141,8.399241019
1142,8.378487266
1143,8.431193198
1144,8.375077282
1145,8.36025686
1146,8.349920813
1147,8.366736947
1148,8.405380791
1149,8.406217584
1150,8.426868521
1151,8.366708147
1152,8.41512046
1153,8.356602264
1154,8.431437478
1155,8.363804332
1156,8.406428413
1157,8.357080614
1158,8.378406552
1159,8.360742443
1160,8.415286959
1161,8.429864384
1162,8.393030946
1163,8.432529693
1164,8.496629679
1165,8.392831286
1166,8.361451943
1167,8.349929518
1168,8.420368293
1169,8.386305288
1170,8.41477302
1171,8.369062352
1172,8.369015282
1173,8.414321988
1174,8.391575324
1175,8.403483685
1176,8.43976222
1177,8.424244171
1178,8.369248997
1179,8.434340735
1180,8.437130053
1181,8.461312555
1182,8.409658842
1183,8.424288584
1184,8.437555221
1185,8.36646642
1186,8.394895022
1187,8.425596453
1188,8.388337282
1189,8.391796791
1190,8.408833318
1191,8.360713762
1192,8.364996392
1193,8.504989834
1194,8.375938556
1195,8.421020975
1196,8.387720995
1197,8.427689393
1198,8.394440795
1199,8.405840332
1200,8.37840763
1201,8.382490113
1202,8.385029651
1203,8.38251618
1204,8.420039904
1205,8.38073602
1206,8.406909816
1207,8.394961147
1208,8.353488253
1209,8.442293934
1210,8.383881842
1211,8.377514995
1212,8.428829565
1213,8.414901688
1214,8.375104082
1215,8.417617105
1216,8.34402667
1217,8.37926123
1218,8.338097368
1219,8.408236209
1220,8.425060876
1221,8.454125563
1222,8.415329781
1223,8.356533691
1224,8.392650771
1225,8.380572633
1226,8.417558103
1227,8.369188116
1228,8.364602181
1229,8.349969868
1230,8.389166096
1231,8.385534412
1232,8.385678875
1233,8.369582057
1234,8.416642734
1235,8.363266111
1236,8.362283697
1237,8.360439227
1238,8.360936341
1239,8.405756145
1240,8.409631138
1241,8.407839005
1242,8.413857179
1243,8.400587608
1244,8.38222134
1245,8.455196849
1246,8.43839775
1247,8.397991139
1248,8.387610972
1249,8.489247864
1250,8.377975805
1251,8.396726408
1252,8.345193041
1253,8.364740608
1254,8.389513119
1255,8.40302393
1256,8.419760398
1257,8.381334721
1258,8.421342596
1259,8.396514895
1260,8.459883583
1261,8.411497017
1262,8.420055932
1263,8.42089723
1264,8.424330853
1265,8.411278623
1266,8.427549288
1267,8.418967586
1268,8.429590547
1269,8.415878181
1270,8.460853709
1271,8.441057394
1272,8.411735803
1273,8.386424017
1274,8.429873656
1275,8.375335242
1276,8.380541263
1277,8.368858466
1278,8.440424497
1279,8.392213759
1280,8.370677805
1281,8.3926368
1282,8.405786409
1283,8.444962974
1284,8.444720141
1285,8.4114987
1286,8.397309961
1287,8.386625193
1288,8.406897081
1289,8.360654221
1290,8.410180208
1291,8.424374537
1292,8.389793062
1293,8.361762241
1294,8.365288838
1295,8.339782943
1296,8.426283671
1297,8.363768173
1298,8.319007423
1299,8.399447403
1300,8.434201367
1301,8.377411303
1302,8.372642269
1303,8.451935287
1304,8.414891023
1305,8.448757584
1306,8.378732465
1307,8.448028898
1308,8.419696571
1309,8.410093426
1310,8.388420109
1311,8.359927704
1312,8.403238145
1313,8.387127821
1314,8.385699032
1315,8.418700656
1316,8.357827198
1317,8.355642669
1318,8.410770933
1319,8.419085668
1320,8.43560769
1321,8.407467747
1322,8.407653159
1323,8.329598598
1324,8.379214189
1325,8.412939706
1326,8.321641801
1327,8.392249666
1328,8.423154861
1329,8.443016066
1330,8.387984569
1331,8.355588482
1332,8.43625007
1333,8.408912765
1334,8.354793316
1335,8.394923001
1336,8.37074005
1337,8.404640681
1338,8.366325747
1339,8.401662986
1340,8.395742414
1341,8.383625038
1342,8.410775924
1343,8.461625724
1344,8.478785104
1345,8.460264508
1346,8.435538802
1347,8.409442606
1348,8.461710662
1349,8.483803678
1350,8.43773971
1351,8.429116024
1352,8.359899922
1353,8.401127302
1354,8.369800173
1355,8.433753486
1356,8.364797596
1357,8.386232358
1358,8.453762155
1359,8.408836713
1360,8.392060971
1361,8.414504002
1362,8.40412409
1363,8.426762421
1364,8.387980217
1365,8.405801101
1366,8.417386064
1367,8.407184997
1368,8.412585602
1369,8.412178884
1370,8.397747922
1371,8.351094785
1372,8.421212399
1373,8.415242525
1374,8.384975527
1375,8.435866731
1376,8.385256588
1377,8.3510868
1378,8.367980083
1379,8.356614757
1380,8.413754844
1381,8.367743975
1382,8.397912622
1383,8.421001023
1384,8.399073683
1385,8.387296396
1386,8.413388786
1387,8.424111316
1388,8.368409433
1389,8.393493463
1390,8.424481324
1391,8.395573585
1392,8.356219034
1393,8.356540524
1394,8.459161436
1395,8.418811121
1396,8.405601176
1397,8.371964731
1398,8.355785057
1399,8.41840659
1400,8.392699423
1401,8.386231917
1402,8.354520698
1403,8.381923928
1404,8.363119464
1405,8.395407697
1406,8.383328825
1407,8.411840223
1408,8.367637332
1409,8.438148571
1410,8.387128126
1411,8.390056084
1412,8.435933178
1413,8.413979359
1414,8.410090175
1415,8.446987984
1416,8.379373434
1417,8.424130958
1418,8.43251108
1419,8.404557029
1420,8.360263719
1421,8.428760823
1422,8.443430001
1423,8.383930625
1424,8.356977981
1425,8.42494046
1426,8.39733175
1427,8.349965363
1428,8.430806051
1429,8.372610971
1430,8.399718862
1431,8.386096555
1432,8.440207097
1433,8.423262631
1434,8.432477539
1435,8.40402864
1436,8.43707461
1437,8.424005498
1438,8.378519168
1439,8.404164368
1440,8.364015165
1441,8.348923426
1442,8.423415627
1443,8.462078778
1444,8.358577691
1445,8.41139407
1446,8.345116677
1447,8.392870347
1448,8.401414795
1449,8.400714079
1450,8.375479877
1451,8.410986371
1452,8.444146706
1453,8.341017381
1454,8.38651128
1455,8.423596647
1456,8.417701185
1457,8.422296712
1458,8.380668589
1459,8.424677246
1460,8.454009757
1461,8.399678666
1462,8.357161375
1463,8.428784368
1464,8.397184703
1465,8.349951703
1466,8.352117278
1467,8.434606829
1468,8.401945395
1469,8.39507965
1470,8.409159828
1471,8.430737583
1472,8.436584746
1473,8.396380183
1474,8.360478065
1475,8.408807897
1476,8.424535822
1477,8.382530081
1478,8.434701227
1479,8.373370192
1480,8.382222249
1481,8.359164306
1482,8.392826563
1483,8.384873605
1484,8.410571053
1485,8.399893178
1486,8.411998014
1487,8.424443412
1488,8.406865147
1489,8.414091548
1490,8.396697219
1491,8.3940108
1492,8.387006201
1493,8.375001599
1494,8.451565509
1495,8.369224458
1496,8.410160418
1497,8.373189859
1498,8.384552997
1499,8.416010676
1500,8.389420209
1501,8.407664079
1502,8.387424517
1503,8.322354717
1504,8.417011152
1505,8.477215784
1506,8.394580338
1507,8.424959898
1508,8.422324352
1509,8.418450323
1510,8.454989109
1511,8.399219698
1512,8.395240259
1513,8.358893805
1514,8.365512224
1515,8.41556734
1516,8.486741203
1517,8.402525555
1518,8.401169888
1519,8.369957065
1520,8.365624073
1521,8.397762319
1522,8.384774777
1523,8.388431531
1524,8.454306327
1525,8.414887498
1526,8.365881232
1527,8.409189599
1528,8.395270627
1529,8.423439157
1530,8.358752733
1531,8.373538148
1532,8.386209892
1533,8.434306022
1534,8.39802616
1535,8.383861965
1536,8.440430991
1537,8.387133608
1538,8.429515658
1539,8.396790893
1540,8.348455457
1541,8.383383724
1542,8.412597386
1543,8.435604707
1544,8.377085611
1545,8.450072866
1546,8.416003048
1547,8.461672798
1548,8.417402414
1549,8.325289643
1550,8.403624354
1551,8.410189821
1552,8.41257496
1553,8.393698955
1554,8.416462888
1555,8.355290311
1556,8.404213207
1557,8.366038028
1558,8.407540207
1559,8.361389436
1560,8.448786847
1561,8.427238951
1562,8.425751025
1563,8.393111435
1564,8.381150947
1565,8.389840813
1566,8.342462983
1567,8.413241339
1568,8.401320541
1569,8.40940405
1570,8.351468642
1571,8.423347693
1572,8.352629803
1573,8.408632536
1574,8.397530602
1575,8.425130944
1576,8.335842192
1577,8.446567737
1578,8.373066729
1579,8.420470915
1580,8.469444472
1581,8.389989559
1582,8.395248207
1583,8.405892764
1584,8.409625521
1585,8.430907091
1586,8.382972496
1587,8.427696876
1588,8.366107055
1589,8.458798365
1590,8.407534532
1591,8.422399323
1592,8.410544018
1593,8.379425304
1594,8.398279501
1595,8.396462515
1596,8.411787753
1597,8.436663517
1598,8.427267554
1599,8.438882267
1600,8.407167717
1601,8.387331955
1602,8.421351498
1603,8.417859942
1604,8.442940664
1605,8.418326517
1606,8.431611793
1607,8.430244664
1608,8.447713679
1609,8.371994178
1610,8.388105122
1611,8.358443278
1612,8.39851875
1613,8.438480881
1614,8.375965393
1615,8.374262859
1616,8.401229013
1617,8.371933707
1618,8.407005829
1619,8.434082346
1620,8.382695164
1621,8.370056985
1622,8.389487467
1623,8.380623742
1624,8.459306444
1625,8.359070082
1626,8.377665452
1627,8.363770615
1628,8.364685609
1629,8.421824485
1630,8.421348701
1631,8.39534977
1632,8.357581766
1633,8.374278638
1634,8.419159606
1635,8.389619389
1636,8.396611568
1637,8.374810482
1638,8.382327587
1639,8.369813592
1640,8.418588358
1641,8.368558017
1642,8.337627174
1643,8.442996364
1644,8.427561929
1645,8.461743982
1646,8.382752425
1647,8.343619111
1648,8.347603912
1649,8.404203795
1650,8.395019284
1651,8.412258228
1652,8.39572226
1653,8.429907686
1654,8.439548487
1655,8.373610907
1656,8.384581856
1657,8.383899288
1658,8.410441986
1659,8.387860312
1660,8.429745734
1661,8.407293111
1662,8.367883521
1663,8.391373205
1664,8.379275403
1665,8.436777011
1666,8.39985987
1667,8.390411688
1668,8.435078771
1669,8.42739231
1670,8.418562717
1671,8.425599286
1672,8.347612162
1673,8.449872286
1674,8.418736789
1675,8.387023411
1676,8.403975391
1677,8.38846623
1678,8.448772587
1679,8.411652668
1680,8.403189635
1681,8.413721037
1682,8.392323366
1683,8.418547554
1684,8.368758338
1685,8.455409083
1686,8.389501889
1687,8.400457575
1688,8.401337245
1689,8.424106882
1690,8.349747885
1691,8.397545051
1692,8.395466419
1693,8.36162842
1694,8.426267157
1695,8.380115121
1696,8.442289009
1697,8.410034178
1698,8.397520822
1699,8.410299003
1700,8.381330217
1701,8.404711921
1702,8.34008218
1703,8.394091453
1704,8.384086769
1705,8.387856008
1706,8.429873911
1707,8.43956373
1708,8.33659882
1709,8.451203305
1710,8.423259311
1711,8.376188967
1712,8.361466898
1713,8.37508346
1714,8.376232521
1715,8.418390838
1716,8.440879704
1717,8.423393239
1718,8.353690836
1719,8.426162621
1720,8.385003881
1721,8.31188265
1722,8.426168962
1723,8.383132634
1724,8.388739135
1725,8.36668197
1726,8.394460215
1727,8.335190735
1728,8.379781554
1729,8.408266738
1730,8.392770826
1731,8.433529832
1732,8.40455812
1733,8.383288614
1734,8.443935558
1735,8.390918084
1736,8.359588745
1737,8.383208606
1738,8.349729653
1739,8.429827118
1740,8.375632984
1741,8.367478772
1742,8.38325547
1743,8.399779752
1744,8.426636007
1745,8.407982911
1746,8.397504328
1747,8.37238043
1748,8.408716168
1749,8.378755064
1750,8.339541315
1751,8.429714885
1752,8.388369837
1753,8.365252918
1754,8.450458948
1755,8.432063931
1756,8.363729495
1757,8.379026923
1758,8.351089316
1759,8.407738456
1760,8.385711984
1761,8.423237111
1762,8.382712972
1763,8.397892548
1764,8.38318007
1765,8.407732785
1766,8.447715139
1767,8.355470541
1768,8.340397563
1769,8.401826792
1770,8.340903303
1771,8.383033516
1772,8.401625369
1773,8.418958086
1774,8.400715898
1775,8.373646768
1776,8.419718755
1777,8.427032402
1778,8.433456622
1779,8.418768943
1780,8.399601711
1781,8.429160059
1782,8.39549038
1783,8.394351909
1784,8.401401282
1785,8.40576659
1786,8.386857176
1787,8.414357304
1788,8.417412424
1789,8.46803272
1790,8.460479109
1791,8.326250454
1792,8.422922177
1793,8.395641018
1794,8.414910558
1795,8.401498659
1796,8.384084274
1797,8.456316686
1798,8.387136261
1799,8.414241365
1800,8.391747511
1801,8.473857537
1802,8.454001894
1803,8.438009421
1804,8.422564162
1805,8.368237402
1806,8.363380317
1807,8.401680389
1808,8.427351351
1809,8.433740231
1810,8.361407041
1811,8.381864139
1812,8.429472582
1813,8.372603188
1814,8.402738142
1815,8.423890216
1816,8.350249535
1817,8.397701125
1818,8.366205699
1819,8.379674313
1820,8.375294152
1821,8.466617829
1822,8.381673212
1823,8.401118395
1824,8.410447412
1825,8.364932934
1826,8.436963701
1827,8.401276688
1828,8.324440098
1829,8.460370799
1830,8.369513143
1831,8.45120711
1832,8.354700967
1833,8.390377352
1834,8.418677215
1835,8.413447678
1836,8.415508362
1837,8.376387532
1838,8.42268369
1839,8.408309418
1840,8.403446579
1841,8.461361813
1842,8.395100276
1843,8.390478398
1844,8.385722009
1845,8.431354275
1846,8.406689851
1847,8.357811142
1848,8.433708783
1849,8.354240679
1850,8.403919091
1851,8.341380513
1852,8.402824313
1853,8.40654904
1854,8.408507712
1855,8.41746441
1856,8.374736402
1857,8.406132183
1858,8.437747118
1859,8.356780075
1860,8.396786196
1861,8.417278826
1862,8.368126867
1863,8.400014549
1864,8.389005863
1865,8.405700981
1866,8.411510224
1867,8.379124453
1868,8.313405313
1869,8.408890822
1870,8.406563947
1871,8.413189508
1872,8.409632164
1873,8.374886892
1874,8.437690448
1875,8.356983651
1876,8.412330027
1877,8.403606993
1878,8.446929693
1879,8.435072332
1880,8.423357695
1881,8.332916665
1882,8.373995941
1883,8.3849907
1884,8.415865419
1885,8.411011701
1886,8.374806588
1887,8.344056588
1888,8.397187978
1889,8.426900438
1890,8.380779052
1891,8.403379615
1892,8.373432957
1893,8.380587199
1894,8.39504596
1895,8.38666979
1896,8.426129044
1897,8.421385568
1898,8.325095968
1899,8.391806786
1900,8.370235279
1901,8.40717543
1902,8.473766342
1903,8.45475387
1904,8.368479494
1905,8.374175537
1906,8.358967255
1907,8.361611675
1908,8.404004039
1909,8.414821505
1910,8.378828287
1911,8.384460406
1912,8.366578522
1913,8.409153944
1914,8.457747027
1915,8.379938571
1916,8.390745985
1917,8.411299387
1918,8.424669939
1919,8.448977324
1920,8.449589502
1921,8.439963877
1922,8.368571214
1923,8.419924429
1924,8.332502137
1925,8.429666473
1926,8.451312688
1927,8.377013824
1928,8.452901301
1929,8.349197071
1930,8.4361867
1931,8.372650608
1932,8.416317793
1933,8.380030896
1934,8.401191061
1935,8.398943854
1936,8.383177615
1937,8.426222176
1938,8.387470584
1939,8.377533015
1940,8.378824953
1941,8.465750562
1942,8.335705488
1943,8.403321926
1944,8.376721965
1945,8.379373398
1946,8.414361831
1947,8.353253207
1948,8.415493855
1949,8.359624885
1950,8.384166356
1951,8.445265672
1952,8.392515484
1953,8.42534362
1954,8.417193673
1955,8.421902606
1956,8.453424805
1957,8.381085931
1958,8.357472207
1959,8.360219809
1960,8.45050699
1961,8.361656453
1962,8.350509413
1963,8.397148516
1964,8.446898695
1965,8.372901442
1966,8.390702214
1967,8.415193426
1968,8.381359619
1969,8.426043438
1970,8.432424266
1971,8.391075858
1972,8.388603879
1973,8.427755787
1974,8.386099492
1975,8.355017893
1976,8.414549137
1977,8.383974206
1978,8.43880206
1979,8.421263359
1980,8.446270021
1981,8.425682262
1982,8.412049137
1983,8.409954101
1984,8.400305949
1985,8.428030055
1986,8.386518211
1987,8.456738924
1988,8.431318291
1989,8.437303222
1990,8.396844517
1991,8.378112929
1992,8.436146062
1993,8.378761239
1994,8.412338005
1995,8.408974364
1996,8.359821377
1997,8.380405006
1998,8.386517954
1999,8.42112933
2000,8.422840837
2001,8.380294129
2002,8.414638968
2003,8.349178868
2004,8.43876612
2005,8.380637466
2006,8.420734784
2007,8.334060171
2008,8.392167729
2009,8.407619978
2010,8.37429921
2011,8.399507026
2012,8.395179172
2013,8.368094659
2014,8.389449572
2015,8.409758605
2016,8.419034298
2017,8.367181568
2018,8.406830167
2019,8.384889968
2020,8.40154587
2021,8.368461833
2022,8.420723148
2023,8.373581887
2024,8.398785773
2025,8.384270945
2026,8.40314751
2027,8.391168968
2028,8.37431183
2029,8.383524565
2030,8.356696279
2031,8.419303954
2032,8.407817011
2033,8.387830789
2034,8.382808735
2035,8.374652471
2036,8.41938104
2037,8.339690951
2038,8.415373736
2039,8.320549962
2040,8.390541703
2041,8.332546923
2042,8.375349616
2043,8.423071799
2044,8.378507065
2045,8.364154804
2046,8.410652995
2047,8.373020946
2048,8.360423076
2049,8.414337717
2050,8.435154619
2051,8.32817851
2052,8.354914867
2053,8.39954634
2054,8.398720223
2055,8.371904906
2056,8.370784153
2057,8.379368646
2058,8.418496262
2059,8.395897747
2060,8.304070497
2061,8.387060253
2062,8.346045763
2063,8.37320769
2064,8.372334335
2065,8.400481023
2066,8.416902845
2067,8.395940912
2068,8.400070397
2069,8.41032483
2070,8.432231941
2071,8.410991986
2072,8.481488936
2073,8.388461068
2074,8.423019568
2075,8.344413972
2076,8.369173871
2077,8.417356725
2078,8.418119509
2079,8.394605891
2080,8.370042109
2081,8.403209225
2082,8.366449662
2083,8.321263279
2084,8.389985603
2085,8.374362234
2086,8.393212789
2087,8.373094278
2088,8.448548059
2089,8.394655418
2090,8.436266897
2091,8.407686706
2092,8.389783503
2093,8.362634041
2094,8.445061091
2095,8.415375339
2096,8.377224881
2097,8.39568357
2098,8.403333955
2099,8.376941917
2100,8.394760845
2101,8.368971082
2102,8.392124015
2103,8.39248555
2104,8.424318884
2105,8.335018893
2106,8.37181019
2107,8.394686452
2108,8.38377909
2109,8.419343234
2110,8.392953254
2111,8.416491358
2112,8.33861397
2113,8.394554508
2114,8.34248744
2115,8.419353413
2116,8.350439724
2117,8.41092702
2118,8.438002172
2119,8.391773123
2120,8.378643642
2121,8.34001872
2122,8.430817632
2123,8.418877781
2124,8.353310937
2125,8.394217591
2126,8.416294452
2127,8.390073185
2128,8.386992381
2129,8.388327336
2130,8.374176702
2131,8.422991368
2132,8.361833306
2133,8.39537613
2134,8.377288919
2135,8.468675683
2136,8.34927591
2137,8.373492457
2138,8.408526664
2139,8.350090602
2140,8.388444804
2141,8.371475586
2142,8.407554526
2143,8.395096554
2144,8.430595434
2145,8.45551767
2146,8.383009527
2147,8.374423301
2148,8.422261223
2149,8.477335723
2150,8.383119304
2151,8.414453445
2152,8.402358335
2153,8.395955997
2154,8.437391896
2155,8.358511411
2156,8.377178377
2157,8.439412277
2158,8.432018657
2159,8.367266375
2160,8.376937342
2161,8.391891337
2162,8.381769029
2163,8.39404501
2164,8.426649541
2165,8.382042265
2166,8.367982926
2167,8.391997088
2168,8.371098656
2169,8.457004021
2170,8.405345425
2171,8.39808102
2172,8.449778691
2173,8.464687487
2174,8.405164193
2175,8.399473401
2176,8.427415384
2177,8.41022992
2178,8.407714158
2179,8.453116918
2180,8.381597104
2181,8.442518699
2182,8.394011307
2183,8.333658936
2184,8.43769028
2185,8.371004695
2186,8.42284045
2187,8.472179826
2188,8.384657141
2189,8.414460588
2190,8.416022532
2191,8.336673303
2192,8.378190148
2193,8.432120997
2194,8.418285262
2195,8.404673959
2196,8.400259105
2197,8.371732197
2198,8.444500796
2199,8.391031263
2200,8.404790824
2201,8.406467172
2202,8.367066009
2203,8.400169559
2204,8.40433725
2205,8.390064784
2206,8.391947597
2207,8.392712477
2208,8.324462269
2209,8.427547047
2210,8.390344979
2211,8.397114917
2212,8.363038365
2213,8.383200421
2214,8.410132291
2215,8.377409331
2216,8.393968509
2217,8.407046737
2218,8.422384839
2219,8.413736624
2220,8.433484981
2221,8.366034587
2222,8.410909689
2223,8.340038793
2224,8.403563653
2225,8.382642441
2226,8.390498894
2227,8.395724016
2228,8.303893288
2229,8.35327804
2230,8.380834597
2231,8.385006127
2232,8.384450944
2233,8.377529915
2234,8.47518062
2235,8.397618297
2236,8.401412003
2237,8.437268465
2238,8.401454084
2239,8.41342217
2240,8.357222299
2241,8.437076784
2242,8.375277073
2243,8.325751219
2244,8.364128045
2245,8.368969026
2246,8.388472274
2247,8.355450742
2248,8.394557098
2249,8.380262025
2250,8.399698351
2251,8.346834692
2252,8.417628211
2253,8.395643892
2254,8.358820818
2255,8.405730817
2256,8.375230997
2257,8.407667145
2258,8.479516421
2259,8.410815555
2260,8.396417591
2261,8.435177962
2262,8.415853165
2263,8.410566192
2264,8.403350319
2265,8.390741028
2266,8.390837713
2267,8.39509301
2268,8.385123409
2269,8.380812113
2270,8.432005459
2271,8.372425329
2272,8.369526196
2273,8.427903829
2274,8.439167184
2275,8.449897047
2276,8.318413929
2277,8.40694596
2278,8.413158371
2279,8.380467548
2280,8.44897842
2281,8.420791582
2282,8.366720404
2283,8.393771364
2284,8.446382231
2285,8.371768095
2286,8.410735771
2287,8.385918893
2288,8.46242675
2289,8.415533484
2290,8.447589638
2291,8.409567584
2292,8.422707421
2293,8.368137988
2294,8.404762061
2295,8.444437895
2296,8.453594812
2297,8.453215727
2298,8.34790549
2299,8.435280881
2300,8.428150229
2301,8.421806784
2302,8.414043358
2303,8.448516363
2304,8.43286448
2305,8.393685454
2306,8.420292153
2307,8.424224734
2308,8.444212283
2309,8.38881706
2310,8.398567711
2311,8.398054362
2312,8.32467457
2313,8.390963569
2314,8.372291786
2315,8.380588003
2316,8.429564886
2317,8.409008627
2318,8.428274333
2319,8.412159082
2320,8.3929972
2321,8.387847934
2322,8.430014422
2323,8.372263543
2324,8.424521819
2325,8.379873052
2326,8.4353899
2327,8.378778246
2328,8.434670296
2329,8.426765937
2330,8.404497157
2331,8.414017243
2332,8.383985626
2333,8.429643277
2334,8.394086102
2335,8.399206599
2336,8.460243034
2337,8.375448006
2338,8.417880502
2339,8.427690165
2340,8.376125611
2341,8.420073925
2342,8.359942369
2343,8.438026722
2344,8.39882899
2345,8.404516861
2346,8.407255729
2347,8.433895733
2348,8.393305931
2349,8.411266908
2350,8.425653169
2351,8.366365347
2352,8.394740079
2353,8.390963024
2354,8.393056172
2355,8.37388047
2356,8.35997946
2357,8.420285852
2358,8.378299329
2359,8.386879347
2360,8.394294415
2361,8.438196022
2362,8.422705808
2363,8.348905556
2364,8.387674816
2365,8.375387305
2366,8.344215822
2367,8.472379121
2368,8.393532028
2369,8.329501929
2370,8.371875118
2371,8.417503288
2372,8.449548545
2373,8.390505189
2374,8.401308549
2375,8.406378316
2376,8.37216005
2377,8.397259124
2378,8.367919528
2379,8.429812465
2380,8.451243964
2381,8.413364881
2382,8.419707121
2383,8.364360674
2384,8.392727957
2385,8.424717336
2386,8.40599042
2387,8.345456264
2388,8.449565136
2389,8.408778098
2390,8.393539549
2391,8.425763012
2392,8.39725776
2393,8.385201438
2394,8.422966897
2395,8.359522314
2396,8.391971071
2397,8.397440737
2398,8.38764273
2399,8.441972818
2400,8.394794777
2401,8.431185563
2402,8.397136773
2403,8.398096343
2404,8.414566068
2405,8.364243226
2406,8.379803634
2407,8.395202416
2408,8.417735997
2409,8.372879747
2410,8.433767365
2411,8.406736557
2412,8.418710319
2413,8.387105278
2414,8.389552972
2415,8.412812174
2416,8.341345315
2417,8.427678354
2418,8.406684485
2419,8.388065838
2420,8.444717303
2421,8.426343129
2422,8.378995445
2423,8.416447804
2424,8.403091205
2425,8.405746165
2426,8.352321921
2427,8.432425285
2428,8.426059694
2429,8.411762106
2430,8.390078601
2431,8.418229534
2432,8.409124147
2433,8.406324779
2434,8.417439561
2435,8.391985308
2436,8.374011227
2437,8.371265465
2438,8.454519601
2439,8.393431568
2440,8.435940613
2441,8.394958045
2442,8.380666588
2443,8.402358198
2444,8.373219621
2445,8.427538068
2446,8.399910963
2447,8.429389416
2448,8.379264584
2449,8.36554513
2450,8.436946509
2451,8.402865081
2452,8.415722183
2453,8.360440772
2454,8.339818337
2455,8.44700101
2456,8.403229828
2457,8.437717282
2458,8.36696721
2459,8.405681486
2460,8.364057098
2461,8.445772882
2462,8.388693079
2463,8.373301678
2464,8.365821323
2465,8.423197568
2466,8.426122506
2467,8.379053895
2468,8.427746486
2469,8.405263193
2470,8.41507715
2471,8.393572571
2472,8.423215109
2473,8.391249295
2474,8.41871062
2475,8.443238268
2476,8.421179714
2477,8.410784031
2478,8.343121414
2479,8.404519735
2480,8.40656732
2481,8.405555546
2482,8.397168715
2483,8.348391257
2484,8.406265434
2485,8.359636853
2486,8.392824534
2487,8.408028762
2488,8.411137565
2489,8.394141606
2490,8.391639254
2491,8.374877188
2492,8.404299464
2493,8.425011241
2494,8.422888376
2495,8.422398022
2496,8.425321499
2497,8.407866445
2498,8.407244391
2499,8.412278027
2500,8.446807213
2501,8.39004456
2502,8.404319338
2503,8.404079683
2504,8.455969068
2505,8.378498987
2506,8.421733213
2507,8.397484387
2508,8.402215416
2509,8.419347251
2510,8.427514514
2511,8.391617673
2512,8.390445154
2513,8.399922495
2514,8.399675214
2515,8.422376454
2516,8.381820022
2517,8.391883857
2518,8.387258725
2519,8.394631133
2520,8.428768704
2521,8.423751971
2522,8.395347223
2523,8.389958996
2524,8.431224701
2525,8.428989534
2526,8.395336658
2527,8.467768872
2528,8.386398574
2529,8.384792438
2530,8.441068518
2531,8.402215471
2532,8.419677923
2533,8.431520502
2534,8.387196518
2535,8.375566858
2536,8.388008458
2537,8.396923874
2538,8.417759623
2539,8.395625805
2540,8.474194422
2541,8.38858134
2542,8.422826484
2543,8.427515952
2544,8.365867677
2545,8.351282126
2546,8.409578748
2547,8.413332078
2548,8.439025485
2549,8.412957489
2550,8.431518888
2551,8.399618993
2552,8.410943056
2553,8.416561813
2554,8.429875312
2555,8.400148468
2556,8.43334763
2557,8.392900213
2558,8.387519768
2559,8.404799368
2560,8.394445644
2561,8.460716961
2562,8.39354669
2563,8.390894832
2564,8.416392081
2565,8.386486306
2566,8.354002519
2567,8.375566296
2568,8.38255342
2569,8.370100456
2570,8.402885551
2571,8.407044625
2572,8.36554057
2573,8.448301229
2574,8.412017533
2575,8.405018429
2576,8.388285953
2577,8.389790321
2578,8.415009672
2579,8.380947205
2580,8.389760632
2581,8.416189316
2582,8.363356693
2583,8.357367517
2584,8.386020016
2585,8.389797009
2586,8.429824741
2587,8.355799829
2588,8.366601875
2589,8.374849166
2590,8.398048886
2591,8.438188933
2592,8.367110221
2593,8.394087298
2594,8.377710572
2595,8.382911443
2596,8.381823267
2597,8.409937164
2598,8.369169088
2599,8.400431947
2600,8.388029054
2601,8.398123541
2602,8.44081943
2603,8.425014443
2604,8.377428231
2605,8.374398679
2606,8.389851555
2607,8.38190595
2608,8.41531666
2609,8.473422401
2610,8.407945485
2611,8.483470802
2612,8.366845671
2613,8.42174925
2614,8.413056365
2615,8.393006858
2616,8.421638575
2617,8.43328368
2618,8.378156071
2619,8.434134166
2620,8.389635219
2621,8.440322547
2622,8.405577834
2623,8.374979584
2624,8.389508718
2625,8.373249992
2626,8.398068399
2627,8.369842021
2628,8.406434636
2629,8.461139195
2630,8.387201255
2631,8.433696577
2632,8.368699685
2633,8.441871415
2634,8.41555351
2635,8.409122479
2636,8.391770909
2637,8.364876473
2638,8.39147358
2639,8.38562902
2640,8.407321095
2641,8.428661482
2642,8.38270198
2643,8.441157584
2644,8.442009869
2645,8.400131864
2646,8.350342019
2647,8.407678982
2648,8.407326236
2649,8.419125169
2650,8.383413666
2651,8.399844969
2652,8.379011986
2653,8.399007389
2654,8.407855473
2655,8.433238957
2656,8.380328136
2657,8.394075367
2658,8.402788892
2659,8.402953402
2660,8.38934502
2661,8.334566232
2662,8.414513824
2663,8.429325094
2664,8.429217905
2665,8.403085507
2666,8.338031609
2667,8.385457767
2668,8.408456314
2669,8.429237193
2670,8.431807374
2671,8.42005518
2672,8.398619076
2673,8.405808903
2674,8.312828144
2675,8.409975788
2676,8.374530899
2677,8.420631375
2678,8.449728103
2679,8.345261466
2680,8.405080381
2681,8.401454511
2682,8.391874888
2683,8.439141654
2684,8.434700988
2685,8.386488855
2686,8.385161084
2687,8.356897416
2688,8.401253905
2689,8.43469292
2690,8.436937455
2691,8.352924357
2692,8.373649876
2693,8.374740412
2694,8.410726732
2695,8.457420654
2696,8.398556663
2697,8.387848211
2698,8.417425309
2699,8.311397644
2700,8.41456897
2701,8.405412619
2702,8.349079527
2703,8.395576692
2704,8.367844964
2705,8.434705131
2706,8.426484609
2707,8.421539365
2708,8.43537938
2709,8.415715303
2710,8.366254706
2711,8.40462821
2712,8.396203616
2713,8.391091229
2714,8.41785128
2715,8.4300475
2716,8.409363821
2717,8.431380991
2718,8.379722065
2719,8.434438545
2720,8.412049594
2721,8.406855506
2722,8.377123878
2723,8.402188865
2724,8.462056294
2725,8.410012505
2726,8.436471936
2727,8.412977512
2728,8.383565178
2729,8.393300454
2730,8.436479693
2731,8.376066187
2732,8.389462568
2733,8.406636125
2734,8.41360055
2735,8.386238667
2736,8.445462658
2737,8.427941313
2738,8.42786684
2739,8.436429008
2740,8.457271182
2741,8.423956578
2742,8.418547997
2743,8.410003005
2744,8.4268413
2745,8.350067127
2746,8.430180094
2747,8.363842582
2748,8.430180036
2749,8.39673579
2750,8.39661779
2751,8.441261296
2752,8.374406255
2753,8.394966417
2754,8.395137159
2755,8.382977743
2756,8.360312082
2757,8.352802129
2758,8.430053947
2759,8.371465933
2760,8.389551118
2761,8.434031284
2762,8.383387164
2763,8.389425612
2764,8.360225598
2765,8.40452273
2766,8.3837748
2767,8.404524278
2768,8.406313833
2769,8.389056379
2770,8.419200423
2771,8.399602525
2772,8.396084385
2773,8.4232856
2774,8.442399002
2775,8.391348179
2776,8.380914652
2777,8.406542299
2778,8.414742793
2779,8.432272011
2780,8.417056608
2781,8.420686658
2782,8.365930419
2783,8.402170696
2784,8.402395116
2785,8.41157128
2786,8.369570975
2787,8.354010572
2788,8.44464078
2789,8.405393737
2790,8.432227371
2791,8.377124238
2792,8.419639936
2793,8.341817318
2794,8.426176429
2795,8.407953449
2796,8.441232713
2797,8.393636494
2798,8.374489694
2799,8.424873832
2800,8.43038365
2801,8.44613811
2802,8.421791648
2803,8.358128901
2804,8.369835269
2805,8.416097603
2806,8.452446653
2807,8.423048397
2808,8.406930236
2809,8.389397141
2810,8.442095638
2811,8.408565637
2812,8.4010368
2813,8.377317153
2814,8.384284553
2815,8.403285245
2816,8.382715464
2817,8.402556518
2818,8.409780251
2819,8.392939085
2820,8.418198913
2821,8.437517667
2822,8.398392778
2823,8.428497004
2824,8.424151257
2825,8.393650937
2826,8.430358347
2827,8.341091308
2828,8.410810733
2829,8.391298167
2830,8.366135267
2831,8.430134605
2832,8.448549477
2833,8.386829558
2834,8.397316121
2835,8.386133515
2836,8.389544416
2837,8.422307174
2838,8.331075593
2839,8.375082669
2840,8.400008216
2841,8.358827213
2842,8.417493011
2843,8.373483842
2844,8.376869459
2845,8.415357991
2846,8.445602704
2847,8.380935373
2848,8.372546358
2849,8.338968817
2850,8.420004244
2851,8.396883752
2852,8.389866817
2853,8.474868036
2854,8.386903051
2855,8.353517631
2856,8.393479077
2857,8.370217644
2858,8.372494286
2859,8.389445889
2860,8.356794991
2861,8.356742122
2862,8.329431893
2863,8.43540654
2864,8.402856113
2865,8.41107033
2866,8.438110839
2867,8.372018846
2868,8.424980898
2869,8.409969389
2870,8.386141049
2871,8.439421823
2872,8.400724792
2873,8.395346492
2874,8.38166049
2875,8.408665551
2876,8.405486131
2877,8.409941367
2878,8.402386204
2879,8.372818589
2880,8.367686647
2881,8.44863525
2882,8.392297599
2883,8.382679132
2884,8.40408579
2885,8.401294361
2886,8.408747792
2887,8.396763304
2888,8.406568069
2889,8.420333469
2890,8.371622263
2891,8.367472543
2892,8.42746973
2893,8.388245369
2894,8.414468995
2895,8.377946535
2896,8.427053631
2897,8.368429598
2898,8.3654666
2899,8.384746982
2900,8.382801083
2901,8.37564786
2902,8.412952027
2903,8.447491937
2904,8.390454152
2905,8.427334593
2906,8.420126117
2907,8.359101045
2908,8.422855554
2909,8.422796331
2910,8.426887205
2911,8.387144087
2912,8.405956322
2913,8.406816745
2914,8.433840803
2915,8.410065282
2916,8.344934643
2917,8.370156464
2918,8.40610638
2919,8.409511467
2920,8.37210484
2921,8.377138314
2922,8.379216151
2923,8.388965027
2924,8.348575367
2925,8.441731548
2926,8.425248207
2927,8.421651585
2928,8.479051543
2929,8.356300684
2930,8.434776771
2931,8.384127402
2932,8.41266162
2933,8.418824533
2934,8.414490488
2935,8.436678531
2936,8.401952502
2937,8.434120356
2938,8.464972538
2939,8.387952804
2940,8.40698124
2941,8.417379409
2942,8.414977899
2943,8.402409584
2944,8.399258694
2945,8.408531686
2946,8.384597818
2947,8.440770157
2948,8.450733351
2949,8.39373943
2950,8.435471184
2951,8.434404567
2952,8.405006411
2953,8.332080641
2954,8.383214246
2955,8.437164521
2956,8.377378322
2957,8.419200726
2958,8.412535728
2959,8.412851865
2960,8.399648714
2961,8.391698922
2962,8.423119997
2963,8.434282381
2964,8.433786939
2965,8.383216502
2966,8.414507842
2967,8.403769197
2968,8.407201262
2969,8.378467773
2970,8.420938858
2971,8.361198863
2972,8.414647975
2973,8.389440127
2974,8.430488738
2975,8.394429896
2976,8.371779829
2977,8.38800913
2978,8.415754729
2979,8.374134077
2980,8.399062097
2981,8.436152578
2982,8.300291083
2983,8.383468514
2984,8.403922551
2985,8.382404501
2986,8.389110027
2987,8.413477973
2988,8.35665122
2989,8.414489792
2990,8.375106551
2991,8.375278907
2992,8.425649055
2993,8.40488813
2994,8.439133438
2995,8.438365625
2996,8.407965549
2997,8.426180893
2998,8.43399678
2999,8.380258103
3000,8.383678715
3001,8.380884118
3002,8.403515354
3003,8.378757677
3004,8.399788437
3005,8.374819142
3006,8.38533824
3007,8.439327548
3008,8.403027148
3009,8.369997279
3010,8.401177945
3011,8.41650372
3012,8.489234044
3013,8.348115457
3014,8.44208689
3015,8.383964479
3016,8.40426714
3017,8.418463828
3018,8.403947715
3019,8.427517094
3020,8.412602242
3021,8.364400067
3022,8.389124094
3023,8.399658753
3024,8.436982701
3025,8.415389764
3026,8.427710635
3027,8.362753103
3028,8.377047653
3029,8.368465019
3030,8.39265438
3031,8.429187219
3032,8.444678487
3033,8.401416387
3034,8.396522787
3035,8.36275889
3036,8.39717682
3037,8.379622661
3038,8.405867389
3039,8.336691708
3040,8.387809853
3041,8.429868337
3042,8.437202809
3043,8.373924552
3044,8.402438732
3045,8.444450387
3046,8.370703288
3047,8.36542298
3048,8.434839801
3049,8.413207285
3050,8.439469596
3051,8.408543509
3052,8.412353158
3053,8.388431539
3054,8.383705913
3055,8.431160245
3056,8.39796836
3057,8.391833327
3058,8.391448743
3059,8.405073033
3060,8.435181665
3061,8.41870007
3062,8.423061001
3063,8.406153484
3064,8.389498356
3065,8.380940954
3066,8.374875589
3067,8.417880229
3068,8.363727354
3069,8.399947369
3070,8.405513828
3071,8.423236538
3072,8.393357766
3073,8.403217531
3074,8.377046833
3075,8.383763732
3076,8.366089237
3077,8.442098245
3078,8.383660569
3079,8.42726467
3080,8.391047078
3081,8.375310148
3082,8.393144384
3083,8.408648337
3084,8.349954249
3085,8.437956025
3086,8.436959985
3087,8.411071298
3088,8.355854769
3089,8.397381512
3090,8.414070902
3091,8.376666561
3092,8.408027228
3093,8.383563381
3094,8.447598788
3095,8.43132716
3096,8.392508544
3097,8.409703308
3098,8.429560575
3099,8.341761246
3100,8.402301117
3101,8.353720452
3102,8.402404386
3103,8.352137476
3104,8.393735975
3105,8.444163469
3106,8.405687763
3107,8.359052569
3108,8.395736051
3109,8.408663933
3110,8.409464658
3111,8.340362874
3112,8.509994786
3113,8.382945432
3114,8.435704189
3115,8.371734463
3116,8.409185425
3117,8.443222883
3118,8.404860405
3119,8.374175089
3120,8.366900397
3121,8.428330293
3122,8.412177647
3123,8.405886231
3124,8.386928538
3125,8.36419367
3126,8.404724568
3127,8.400359972
3128,8.397813724
3129,8.420123176
3130,8.385794718
3131,8.378710941
3132,8.400235643
3133,8.387381704
3134,8.356434892
3135,8.415857015
3136,8.399423218
3137,8.41452657
3138,8.353854701
3139,8.405640457
3140,8.404136916
3141,8.425874421
3142,8.445174472
3143,8.431270085
3144,8.430193654
3145,8.367355236
3146,8.376356075
3147,8.401280394
3148,8.448979533
3149,8.35864257
3150,8.401099102
3151,8.397226884
3152,8.441961315
3153,8.443595694
3154,8.407227255
3155,8.383152187
3156,8.412035393
3157,8.354819637
3158,8.368864723
3159,8.445108709
3160,8.455069562
3161,8.39131859
3162,8.417084192
3163,8.427881324
3164,8.445808499
3165,8.418223238
3166,8.463702725
3167,8.366721413
3168,8.440667487
3169,8.37413557
3170,8.418836166
3171,8.341062828
3172,8.417518171
3173,8.399337063
3174,8.380938069
3175,8.400542816
3176,8.3688895
3177,8.378357075
3178,8.35042499
3179,8.413602282
3180,8.370808473
3181,8.3829271
3182,8.39920612
3183,8.423316807
3184,8.41572351
3185,8.385873148
3186,8.360524574
3187,8.392983495
3188,8.438081218
3189,8.417487723
3190,8.459215974
3191,8.401577753
3192,8.391043016
3193,8.369973305
3194,8.442939983
3195,8.438309737
3196,8.372101676
3197,8.383934942
3198,8.39667722
3199,8.386706157
3200,8.360097697
3201,8.417002767
3202,8.44964973
3203,8.365056233
3204,8.394582694
3205,8.415092053
3206,8.408418093
3207,8.372810225
3208,8.388505807
3209,8.433644632
3210,8.407073712
3211,8.384514585
3212,8.368795877
3213,8.368550275
3214,8.387809077
3215,8.431709868
3216,8.409029667
3217,8.402651703
3218,8.404987881
3219,8.415013067
3220,8.424920402
3221,8.362084721
3222,8.42027814
3223,8.40232731
3224,8.396589756
3225,8.364072858
3226,8.385207448
3227,8.410614436
3228,8.39095482
3229,8.381179416
3230,8.396262938
3231,8.396809263
3232,8.379651911
3233,8.383680884
3234,8.382698244
3235,8.426015692
3236,8.40273148
3237,8.338815681
3238,8.387862466
3239,8.389782957
3240,8.439570873
3241,8.342377908
3242,8.401741844
3243,8.38504142
3244,8.399545854
3245,8.345217577
3246,8.396883255
3247,8.439895037
3248,8.366591609
3249,8.375746465
3250,8.41854504
3251,8.439650995
3252,8.372469956
3253,8.359124655
3254,8.384391094
3255,8.380296212
3256,8.331000732
3257,8.364823063
3258,8.378172109
3259,8.469205
3260,8.445785876
3261,8.393074289
3262,8.382183211
3263,8.39638277
3264,8.424161245
3265,8.389405026
3266,8.359389392
3267,8.419572115
3268,8.441191435
3269,8.411051011
3270,8.433505883
3271,8.382178932
3272,8.37921089
3273,8.418532021
3274,8.406550893
3275,8.382753725
3276,8.406023518
3277,8.424574887
3278,8.400963166
3279,8.384428611
3280,8.345487314
3281,8.412613604
3282,8.413454196
3283,8.427695681
3284,8.405108243
3285,8.374848682
3286,8.477790152
3287,8.365954693
3288,8.374472289
3289,8.395034477
3290,8.428677046
3291,8.423749045
3292,8.459175419
3293,8.383328867
3294,8.378942544
3295,8.352881463
3296,8.417707338
3297,8.371608429
3298,8.426562687
3299,8.3642514
3300,8.4084033
3301,8.456562459
3302,8.452727802
3303,8.43800834
3304,8.384752432
3305,8.407409027
3306,8.384206409
3307,8.412807246
3308,8.415592819
3309,8.399153443
3310,8.389607524
3311,8.371805218
3312,8.454708226
3313,8.429630049
3314,8.415514773
3315,8.429110382
3316,8.395046632
3317,8.351565932
3318,8.425518218
3319,8.394478377
3320,8.423200576
3321,8.424692204
3322,8.406440164
3323,8.390813502
3324,8.367585583
3325,8.361452016
3326,8.41047479
3327,8.429462122
3328,8.369628181
3329,8.406101594
3330,8.385655438
3331,8.426848264
3332,8.40296778
3333,8.421759581
3334,8.398749436
3335,8.407174936
3336,8.426576209
3337,8.412512889
3338,8.365951505
3339,8.354094828
3340,8.385418735
3341,8.471529009
3342,8.400770534
3343,8.377020654
3344,8.416108078
3345,8.375965125
3346,8.434896399
3347,8.374884853
3348,8.39083618
3349,8.388954469
3350,8.421281729
3351,8.426542278
3352,8.423483317
3353,8.397376507
3354,8.420494651
3355,8.450327531
3356,8.310698979
3357,8.375216531
3358,8.439016446
3359,8.332796547
3360,8.422568287
3361,8.445892998
3362,8.461805592
3363,8.454812141
3364,8.421129073
3365,8.423875896
3366,8.394576564
3367,8.410377136
3368,8.424496059
3369,8.398137797
3370,8.349119475
3371,8.419738036
3372,8.386648483
3373,8.382031184
3374,8.404786921
3375,8.455659323
3376,8.38645392
3377,8.421933192
3378,8.413334436
3379,8.41949408
3380,8.400929337
3381,8.359877687
3382,8.455327684
3383,8.395803849
3384,8.373441558
3385,8.414185815
3386,8.412023113
3387,8.435640173
3388,8.415119861
3389,8.357576826
3390,8.399745146
3391,8.454554789
3392,8.378653359
3393,8.357083185
3394,8.431447257
3395,8.349850118
3396,8.447501109
3397,8.40349618
3398,8.399118574
3399,8.420360745
3400,8.429827761
3401,8.376949166
3402,8.399037802
3403,8.395314984
3404,8.381856501
3405,8.386235385
3406,8.417085393
3407,8.47604704
3408,8.410693507
3409,8.416285849
3410,8.377948133
3411,8.425431677
3412,8.383602045
3413,8.362598481
3414,8.456831556
3415,8.409269117
3416,8.410898643
3417,8.413427446
3418,8.433908714
3419,8.422160144
3420,8.391945169
3421,8.408281571
3422,8.444492022
3423,8.392758264
3424,8.379942148
3425,8.384187272
3426,8.404432601
3427,8.401222281
3428,8.378106691
3429,8.376933156
3430,8.37258502
3431,8.477574721
3432,8.378698436
3433,8.397531766
3434,8.39025793
3435,8.356524717
3436,8.410520215
3437,8.430088414
3438,8.362175678
3439,8.377805005
3440,8.397584882
3441,8.358471216
3442,8.413753329
3443,8.422779821
3444,8.393104277
3445,8.419503491
3446,8.399336406
3447,8.436526463
3448,8.379202557
3449,8.403006257
3450,8.466526747
3451,8.379981551
3452,8.394530501
3453,8.444252113
3454,8.372117643
3455,8.395123129
3456,8.334569076
3457,8.387412565
3458,8.391109778
3459,8.393776617
3460,8.420818188
3461,8.369407726
3462,8.397057058
3463,8.407486749
3464,8.460197841
3465,8.425463764
3466,8.464817946
3467,8.363012323
3468,8.377531601
3469,8.372740981
3470,8.46532518
3471,8.401015857
3472,8.40771789
3473,8.40648383
3474,8.389662426
3475,8.37352252
3476,8.410501518
3477,8.393154421
3478,8.434356564
3479,8.418633774
3480,8.36844002
3481,8.383942122
3482,8.409573344
3483,8.415512341
3484,8.37578946
3485,8.408311373
3486,8.39392825
3487,8.442713811
3488,8.390073299
3489,8.411650574
3490,8.351298507
3491,8.403877865
3492,8.36624417
3493,8.366672697
3494,8.433372487
3495,8.400582891
3496,8.434703336
3497,8.343645396
3498,8.340724183
3499,8.359575656
3500,8.436127931
3501,8.390223679
3502,8.40380309
3503,8.398860951
3504,8.38740941
3505,8.384626229
3506,8.454555429
3507,8.458905517
3508,8.466341065
3509,8.414400878
3510,8.423440232
3511,8.431375498
3512,8.38492957
3513,8.376906884
3514,8.452979822
3515,8.373727731
3516,8.435898543
3517,8.366781985
3518,8.449886299
3519,8.395503834
3520,8.383686225
3521,8.430261207
3522,8.379249179
3523,8.377343238
3524,8.325321607
3525,8.479837795
3526,8.410516382
3527,8.380758108
3528,8.37339276
3529,8.407456926
3530,8.393318199
3531,8.391471366
3532,8.346703842
3533,8.350553192
3534,8.420318284
3535,8.429076154
3536,8.376864288
3537,8.400071651
3538,8.39329132
3539,8.406771126
3540,8.381810672
3541,8.396479686
3542,8.417422441
3543,8.381707818
3544,8.402503721
3545,8.431170978
3546,8.364294037
3547,8.385823436
3548,8.403289862
3549,8.384243672
3550,8.393515066
3551,8.399963936
3552,8.321318052
3553,8.43754627
3554,8.433560104
3555,8.414362578
3556,8.410274307
3557,8.350977714
3558,8.397635944
3559,8.394356926
3560,8.401147507
3561,8.418199962
3562,8.360897906
3563,8.36627183
3564,8.434995742
3565,8.425111129
3566,8.429850964
3567,8.441009151
3568,8.426691756
3569,8.398713259
3570,8.436225798
3571,8.423563403
3572,8.408310761
3573,8.40194348
3574,8.443592597
3575,8.418119503
3576,8.413213965
3577,8.425004353
3578,8.363070892
3579,8.392155536
3580,8.396222873
3581,8.370682614
3582,8.432023869
3583,8.443190173
3584,8.405930679
3585,8.426621417
3586,8.392404355
3587,8.394719363
3588,8.4067273
3589,8.442762395
3590,8.42546358
3591,8.354655482
3592,8.425599563
3593,8.418168975
3594,8.388057316
3595,8.407572863
3596,8.379567601
3597,8.427223509
3598,8.370410782
3599,8.339254371
3600,8.397037008
3601,8.392165747
3602,8.387196837
3603,8.414209584
3604,8.398726908
3605,8.410699772
3606,8.523560366
3607,8.413946067
3608,8.411650475
3609,8.358046851
3610,8.417135415
3611,8.430567899
3612,8.386313186
3613,8.371268887
3614,8.41341081
3615,8.388775975
3616,8.41216451
3617,8.358020724
3618,8.435590989
3619,8.44188045
3620,8.4498039
3621,8.41396833
3622,8.400296332
3623,8.39021045
3624,8.357991436
3625,8.383268473
3626,8.374963022
3627,8.363319608
3628,8.372363014
3629,8.423594873
3630,8.370439185
3631,8.381434989
3632,8.371522658
3633,8.39323017
3634,8.48360757
3635,8.468434916
3636,8.437236813
3637,8.443933727
3638,8.405151323
3639,8.412097993
3640,8.424746391
3641,8.437471696
3642,8.498488328
3643,8.439769703
3644,8.490504008
3645,8.462541462
3646,8.53237061
3647,8.491200388
3648,8.542371761
3649,8.52910779
3650,8.517308813
3651,8.577529194
3652,8.589917387
3653,8.565074653
3654,8.640109181
3655,8.648664085
3656,8.72836418
3657,8.711730897
3658,8.75568775
3659,8.853972458
3660,8.901504051
3661,8.894962378
3662,8.884830982
3663,8.937841066
3664,9.028104067
3665,9.058097238
3666,9.044148805
3667,9.116393177
3668,9.188445016
3669,9.231550312
3670,9.224586382
3671,9.286720206
3672,9.331729432
3673,9.272931012
3674,9.329012735
3675,9.403013919
3676,9.372857194
3677,9.382955657
3678,9.346852572
3679,9.382026292
3680,9.476995104
3681,9.377975502
3682,9.383490191
3683,9.321229487
3684,9.302813574
3685,9.332713369
3686,9.268166477
3687,9.274502433
3688,9.232537212
3689,9.204283875
3690,9.152607878
3691,9.143647379
3692,9.145036963
3693,9.063679058
3694,9.007805084
3695,8.988243891
3696,8.921297159
3697,8.881557481
3698,8.899443018
3699,8.811825346
3700,8.760577414
3701,8.790515264
3702,8.747820278
3703,8.68147754
3704,8.652211894
3705,8.60823747
3706,8.598786639
3707,8.562512235
3708,8.543033449
3709,8.529271842
3710,8.572077524
3711,8.519429215
3712,8.475143768
3713,8.448232548
3714,8.406769605
3715,8.415300956
3716,8.429621146
3717,8.500695571
3718,8.380440256
3719,8.4004389
3720,8.372405886
3721,8.418937859
3722,8.455293318
3723,8.366262793
3724,8.429061684
3725,8.430290736
3726,8.406176121
3727,8.372627741
3728,8.410140845
3729,8.403033789
3730,8.417776427
3731,8.420250116
3732,8.442073838
3733,8.399465074
3734,8.383026437
3735,8.404440559
3736,8.395688041
3737,8.44684184
3738,8.415735853
3739,8.321687759
3740,8.383749576
3741,8.407670178
3742,8.423876053
3743,8.41816962
3744,8.396072539
3745,8.405675487
3746,8.44221717
3747,8.457660256
3748,8.437727549
3749,8.448641762
3750,8.436469308
3751,8.419430532
3752,8.38171709
3753,8.456176355
3754,8.38530342
3755,8.368151598
3756,8.369827234
3757,8.360949153
3758,8.410907491
3759,8.381567554
3760,8.344740709
3761,8.428204022
3762,8.367348569
3763,8.43934108
3764,8.439847126
3765,8.410509485
3766,8.415850046
3767,8.382215608
3768,8.404271614
3769,8.384011894
3770,8.337612789
3771,8.410187683
3772,8.359440139
3773,8.380862907
3774,8.409548969
3775,8.386669842
3776,8.429724582
3777,8.370052689
3778,8.448710251
3779,8.350188027
3780,8.413087448
3781,8.407404373
3782,8.416138815
3783,8.416916719
3784,8.429327262
3785,8.383832105
3786,8.416774039
3787,8.388707512
3788,8.42536658
3789,8.391115897
3790,8.357337856
3791,8.36221701
3792,8.328442783
3793,8.409351788
3794,8.379850082
3795,8.38486194
3796,8.436600856
3797,8.47572693
3798,8.39775212
3799,8.402988129
3800,8.444222673
3801,8.366348141
3802,8.375251361
3803,8.419908737
3804,8.472141162
3805,8.432389917
3806,8.438699142
3807,8.40008546
3808,8.380114635
3809,8.378227492
3810,8.363004375
3811,8.447321539
3812,8.461235979
3813,8.385224928
3814,8.376887612
3815,8.370298978
3816,8.376206341
3817,8.392778093
3818,8.440940422
3819,8.415134522
3820,8.400529558
3821,8.407903185
3822,8.438304175
3823,8.443808461
3824,8.380487441
3825,8.407514188
3826,8.375979511
3827,8.323786672
3828,8.319827112
3829,8.379762615
3830,8.398479801
3831,8.452330864
3832,8.390397808
3833,8.425517335
3834,8.352530616
3835,8.381415031
3836,8.395628716
3837,8.408304286
3838,8.444128699
3839,8.450861952
3840,8.400586718
3841,8.395867502
3842,8.40039779
3843,8.362024563
3844,8.385410876
3845,8.396575387
3846,8.386557425
3847,8.388644769
3848,8.399250162
3849,8.367938574
3850,8.371473085
3851,8.403929721
3852,8.40683325
3853,8.410391381
3854,8.407903765
3855,8.385129357
3856,8.378702032
3857,8.397084546
3858,8.383545353
3859,8.406897011
3860,8.388510803
3861,8.398803643
3862,8.419282648
3863,8.370982829
3864,8.364082754
3865,8.368844116
3866,8.395826997
3867,8.415158535
3868,8.386290849
3869,8.437061044
3870,8.402755794
3871,8.432438841
3872,8.379933998
3873,8.43521736
3874,8.40924466
3875,8.414037451
3876,8.429030049
3877,8.417610624
3878,8.372325189
3879,8.40883119
3880,8.42426324
3881,8.38927894
3882,8.418504089
3883,8.389675566
3884,8.472828146
3885,8.38906819
3886,8.377261147
3887,8.366088403
3888,8.36306805
3889,8.36679669
3890,8.394469672
3891,8.402451929
3892,8.374104793
3893,8.459738111
3894,8.375193647
3895,8.398688171
3896,8.360224527
3897,8.41045975
3898,8.389247477
3899,8.39339195
3900,8.395136988
3901,8.411389862
3902,8.400838073
3903,8.388729668
3904,8.401876497
3905,8.411228541
3906,8.404901264
3907,8.394566321
3908,8.404731584
3909,8.382107057
3910,8.432747934
3911,8.353920576
3912,8.36558987
3913,8.434714766
3914,8.43219097
3915,8.390106203
3916,8.408060931
3917,8.410344755
3918,8.364236635
3919,8.405006653
3920,8.3935902
3921,8.351188484
3922,8.408461984
3923,8.399788272
3924,8.449561836
3925,8.39317053
3926,8.384852455
3927,8.384937801
3928,8.388483682
3929,8.369635575
3930,8.389789182
3931,8.419063012
3932,8.416323245
3933,8.402582916
3934,8.393660461
3935,8.377678546
3936,8.419591084
3937,8.383517161
3938,8.423227097
3939,8.396836221
3940,8.415409514
3941,8.368067662
3942,8.439922626
3943,8.382305751
3944,8.361583444
3945,8.417146509
3946,8.359544098
3947,8.397791078
3948,8.410759715
3949,8.428291584
3950,8.387145086
3951,8.405881497
3952,8.389980984
3953,8.36334754
3954,8.391577192
3955,8.376135563
3956,8.436079814
3957,8.394349372
3958,8.434199634
3959,8.397747686
3960,8.413235528
3961,8.402668359
3962,8.423946814
3963,8.395965779
3964,8.437204864
3965,8.449227748
3966,8.373846855
3967,8.426376777
3968,8.470533737
3969,8.398799325
3970,8.391160123
3971,8.40424751
3972,8.369543068
3973,8.385969498
3974,8.421529056
3975,8.404414505
3976,8.372719933
3977,8.401960294
3978,8.363484139
3979,8.42809268
3980,8.380504534
3981,8.381952191
3982,8.41745775
3983,8.408003418
3984,8.393717418
3985,8.402099255
3986,8.415676539
3987,8.41927598
3988,8.424011036
3989,8.42469317
3990,8.424598017
3991,8.350467105
3992,8.390788605
3993,8.393255608
3994,8.333857992
3995,8.400290112
3996,8.397185451
3997,8.386091559
3998,8.400629445
3999,8.395093509
4000,8.439846743
