Raman Shift,Intensity
93.93005,420.3299
94.41217,412.7877
94.89429,402.8993
95.3764,392.0598
95.85852,381.0765
96.34064,370.7094
96.82275,361.6843
97.30487,353.1859
97.78699,343.0096
98.2691,331.725
98.75122,319.013
99.23334,304.3652
99.71545,287.6617
100.1976,269.8498
100.6797,250.9062
101.1618,232.1349
101.6439,215.8337
102.126,202.8174
102.6081,192.2234
103.0903,182.5042
103.5724,173.2083
104.0545,165.4472
104.5366,159.4736
105.0187,154.9711
105.5008,151.3471
105.983,148.1831
106.4651,145.444
106.9472,143.409
107.4293,142.0101
107.9114,141.3299
108.3935,141.5982
108.8757,142.7288
109.3578,144.3882
109.8399,146.1745
110.322,148.0708
110.8041,150.1653
111.2862,152.6461
111.7684,155.1926
112.2505,157.5207
112.7326,159.5492
113.2147,161.3839
113.6968,163.2534
114.1789,165.2938
114.6611,167.1094
115.1432,168.4685
115.6253,169.5405
116.1074,170.6076
116.5895,171.6317
117.0716,172.9336
117.5538,175.11
118.0359,178.4802
118.518,182.1091
119.0001,185.1944
119.4822,187.7033
119.9643,190.5425
120.4465,194.2722
120.9286,198.5891
121.4107,203.2397
121.8928,208.1687
122.3749,213.3749
122.857,218.8762
123.3392,224.5841
123.8213,230.7939
124.3034,237.3011
124.7855,244.2836
125.2676,252.0767
125.7497,260.8511
126.2319,270.6118
126.714,281.1107
127.1961,292.138
127.6782,304.2842
128.1603,318.1975
128.6424,333.4991
129.1246,349.3003
129.6067,365.0633
130.0888,381.0544
130.5709,395.024
131.053,409.6837
131.5351,420.9937
132.0173,426.9672
132.4994,427.264
132.9815,422.3253
133.4636,412.3424
133.9457,396.0758
134.4278,377.2354
134.91,354.2133
135.3921,329.3164
135.8742,304.7611
136.3563,280.8616
136.8384,258.5418
137.3205,239.6905
137.8027,224.0399
138.2848,210.0277
138.7669,197.084
139.249,185.2255
139.7311,174.5075
140.2132,164.9292
140.6954,156.7349
141.1775,149.9872
141.6596,144.7203
142.1417,140.4718
142.6238,137.0009
143.1059,134.3667
143.5881,132.0303
144.0702,129.9089
144.5523,128.0089
145.0344,126.459
145.5165,125.3142
145.9986,124.2882
146.4807,122.8707
146.9629,120.9548
147.445,118.7726
147.9271,116.1108
148.4092,113.3426
148.8913,110.8246
149.3734,108.7182
149.8556,106.9697
150.3377,105.3713
150.8198,103.8113
151.3019,102.5419
151.784,101.6017
152.2661,100.9678
152.7483,100.6303
153.2304,100.5962
153.7125,100.847
154.1946,101.1269
154.6767,101.4061
155.1588,101.7339
155.641,102.0735
156.1231,102.459
156.6052,103.0189
157.0873,103.8917
157.5694,105.061
158.0515,106.0996
158.5337,106.7261
159.0158,107.4122
159.4979,108.6363
159.98,110.4438
160.4621,112.2597
160.9442,113.5359
161.4264,114.4372
161.9085,115.4178
162.3906,116.359
162.8727,117.4986
163.3548,119.378
163.8369,122.3165
164.3191,125.29
164.8012,127.5962
165.2833,129.4074
165.7654,131.0147
166.2475,132.5162
166.7296,133.9215
167.2118,135.3373
167.6939,136.7027
168.176,138.1493
168.6581,139.6017
169.1402,141.14
169.6223,142.9956
170.1045,145.5125
170.5866,148.795
171.0687,151.5504
171.5508,153.6811
172.0329,155.3257
172.515,156.603
172.9972,157.4512
173.4793,157.6723
173.9614,156.9976
174.4435,155.2032
174.9256,153.2221
175.4077,150.8407
175.8899,148.4605
176.372,146.3161
176.8541,144.4312
177.3362,142.6794
177.8183,140.8906
178.3004,138.8777
178.7826,137.3105
179.2647,136.2902
179.7468,135.6128
180.2289,134.9756
180.711,134.3249
181.1931,134.0682
181.6752,134.9747
182.1574,137.5258
182.6395,139.8236
183.1216,141.2398
183.6037,142.4289
184.0858,144.3171
184.5679,147.2545
185.0501,150.6592
185.5322,153.5859
186.0143,156.008
186.4964,158.4502
186.9785,161.5388
187.4606,164.7944
187.9428,167.0945
188.4249,168.1977
188.907,167.9971
189.3891,166.3663
189.8712,163.2612
190.3533,159.834
190.8355,156.6854
191.3176,153.7919
191.7997,151.0659
192.2818,148.3391
192.7639,145.9182
193.246,143.9267
193.7282,142.3669
194.2103,141.3839
194.6924,141.2587
195.1745,142.0732
195.6566,142.9413
196.1387,143.4655
196.6209,144.1561
197.103,145.2778
197.5851,146.8867
198.0672,148.922
198.5493,151.4226
199.0314,154.6032
199.5136,157.5576
199.9957,160.1455
200.4778,162.5335
200.9599,164.8125
201.442,167.0101
201.9241,169.0865
202.4063,171.0077
202.8884,172.8454
203.3705,174.3616
203.8526,175.3988
204.3347,176.27
204.8168,177.1517
205.299,178.1121
205.7811,179.202
206.2632,180.555
206.7453,182.8337
207.2274,184.3616
207.7095,184.4837
208.1917,184.2358
208.6738,184.4906
209.1559,185.5565
209.638,187.2798
210.1201,189.3848
210.6022,192.3608
211.0844,194.9985
211.5665,196.9603
212.0486,198.6579
212.5307,200.5001
213.0128,202.6286
213.4949,205.0431
213.9771,207.7871
214.4592,210.7506
214.9413,214.1775
215.4234,218.2848
215.9055,222.8456
216.3876,227.5746
216.8698,232.4031
217.3519,237.2908
217.834,242.1699
218.3161,246.9021
218.7982,251.9817
219.2803,257.534
219.7625,263.551
220.2446,270.0696
220.7267,277.1657
221.2088,284.668
221.6909,292.3837
222.173,300.3277
222.6552,308.3525
223.1373,316.668
223.6194,325.0545
224.1015,332.8322
224.5836,339.689
225.0657,345.9759
225.5479,352.2087
226.03,358.413
226.5121,364.2008
226.9942,369.8167
227.4763,375.0392
227.9584,378.5562
228.4406,380.0668
228.9227,379.493
229.4048,376.8798
229.8869,372.2956
230.369,366.5826
230.8511,360.2657
231.3333,353.3559
231.8154,345.7706
232.2975,336.7415
232.7796,327.7364
233.2617,319.2604
233.7438,311.4764
234.226,304.779
234.7081,299.617
235.1902,296.0396
235.6723,293.2278
236.1544,290.8209
236.6365,289.5643
237.1187,289.9828
237.6008,291.9619
238.0829,294.9382
238.565,298.4042
239.0471,302.3211
239.5292,307.0155
240.0114,313.2271
240.4935,319.6383
240.9756,326.2496
241.4577,332.7648
241.9398,338.5081
242.4219,342.9462
242.9041,346.0625
243.3862,347.8134
243.8683,348.7846
244.3504,347.8765
244.8325,344.0324
245.3146,337.7579
245.7968,330.444
246.2789,323.4078
246.761,316.7657
247.2431,309.0289
247.7252,298.7099
248.2073,288.7694
248.6895,280.3675
249.1716,273.3247
249.6537,266.9195
250.1358,260.4464
250.6179,253.783
251.1,248.9857
251.5822,246.9742
252.0643,245.5896
252.5464,244.1524
253.0285,242.6951
253.5106,241.6017
253.9927,241.2313
254.4748,241.5769
254.957,241.1781
255.4391,240.0033
255.9212,238.2845
256.4033,236.1018
256.8854,233.4454
257.3676,230.2107
257.8497,226.2707
258.3318,221.6915
258.8139,217.1662
259.296,213.0222
259.7781,208.5897
260.2603,203.2622
260.7424,197.4395
261.2245,191.9882
261.7066,187.4171
262.1887,183.64
262.6708,180.311
263.153,177.473
263.6351,174.8913
264.1172,172.4566
264.5993,170.2181
265.0814,168.1863
265.5635,166.2901
266.0457,164.7287
266.5278,164.2762
267.0099,165.4814
267.492,166.6348
267.9741,166.9017
268.4562,166.7541
268.9384,167.1245
269.4204,168.3742
269.9026,170.352
270.3847,172.8765
270.8668,176.0695
271.3489,179.2567
271.831,182.1736
272.3131,184.9231
272.7953,187.9032
273.2774,191.4202
273.7595,194.7
274.2416,196.3749
274.7237,196.51
275.2058,195.9446
275.688,195.306
276.1701,194.0589
276.6522,191.0761
277.1343,185.8372
277.6164,179.6109
278.0985,173.6741
278.5807,168.0085
279.0628,162.6413
279.5449,157.3566
280.027,152.4514
280.5091,148.3522
280.9912,145.1628
281.4734,142.6547
281.9555,140.7288
282.4376,139.3126
282.9197,138.4147
283.4018,138.335
283.8839,138.6493
284.3661,138.7113
284.8482,138.4078
285.3303,138.3154
285.8124,138.891
286.2945,140.026
286.7766,141.5321
287.2588,143.6425
287.7409,145.9494
288.223,147.8506
288.7051,149.276
289.1872,150.9844
289.6693,153.5665
290.1515,156.7115
290.6336,159.8424
291.1157,163.0212
291.5978,166.0032
292.0799,168.7781
292.562,171.3606
293.0442,172.9854
293.5263,173.1765
294.0084,172.1708
294.4905,170.4354
294.9726,168.0194
295.4547,164.8148
295.9369,160.5821
296.419,155.3691
296.9011,149.7359
297.3832,143.4806
297.8653,137.2744
298.3474,131.7527
298.8296,126.9588
299.3117,122.7039
299.7938,119.0309
300.2759,115.8576
300.758,112.7272
301.2401,109.2875
301.7223,106.2642
302.2044,104.3855
302.6865,103.5385
303.1686,102.8808
303.6507,101.8581
304.1328,100.6546
304.615,99.92812
305.0971,99.93578
305.5792,100.0529
306.0613,99.63283
306.5434,98.91196
307.0255,98.56222
307.5077,99.16058
307.9898,100.2641
308.4719,100.9531
308.954,101.1276
309.4361,101.1691
309.9182,101.2831
310.4004,101.425
310.8825,101.5195
311.3646,101.4946
311.8467,101.4603
312.3288,101.5216
312.8109,101.6569
313.2931,102.0294
313.7752,102.7669
314.2573,103.7775
314.7394,105.035
315.2215,106.6308
315.7036,108.2013
316.1858,109.319
316.6679,109.9856
317.15,110.6692
317.6321,111.3287
318.1142,112.2476
318.5963,113.675
319.0785,115.6371
319.5606,117.9495
320.0427,120.6526
320.5248,123.6717
321.0069,126.4345
321.489,128.5656
321.9712,130.8027
322.4533,134.1117
322.9354,138.2893
323.4175,141.8537
323.8996,143.8288
324.3817,144.6479
324.8639,145.4671
325.346,146.4661
325.8281,147.235
326.3102,147.7059
326.7923,147.7532
327.2744,146.9302
327.7566,144.5833
328.2387,141.534
328.7208,138.9458
329.2029,136.8533
329.685,135.0721
330.1671,133.6701
330.6493,132.4732
331.1314,131.2108
331.6135,129.7805
332.0956,128.3741
332.5777,127.1491
333.0598,126.1066
333.542,125.243
334.0241,124.6528
334.5062,124.183
334.9883,123.5433
335.4704,122.6524
335.9525,121.9905
336.4347,121.9938
336.9168,122.5116
337.3989,122.9393
337.881,123.0607
338.3631,123.2051
338.8452,123.7394
339.3274,124.6252
339.8094,125.6286
340.2916,126.533
340.7737,127.5242
341.2558,128.9069
341.7379,130.7084
342.22,132.9425
342.7021,135.8233
343.1843,139.1853
343.6664,142.5373
344.1485,145.8247
344.6306,149.0553
345.1127,152.2226
345.5948,155.3283
346.077,158.4634
346.5591,161.7885
347.0412,165.126
347.5233,168.0775
348.0054,170.9035
348.4875,172.9446
348.9697,173.729
349.4518,173.3907
349.9339,172.406
350.416,171.021
350.8981,168.9103
351.3802,165.3138
351.8624,160.1429
352.3445,154.688
352.8266,149.1526
353.3087,143.6392
353.7908,138.2717
354.2729,133.0718
354.7551,128.0479
355.2372,123.0999
355.7193,118.2179
356.2014,114.0079
356.6835,110.9114
357.1656,108.2438
357.6478,105.3861
358.1299,102.3457
358.612,99.49346
359.0941,97.06624
359.5762,95.0741
360.0583,93.36105
360.5405,91.92632
361.0226,90.72244
361.5047,89.80515
361.9868,89.09815
362.4689,88.45277
362.951,87.82521
363.4332,87.16682
363.9153,86.3428
364.3974,85.06686
364.8795,84.17818
365.3616,84.02263
365.8438,84.19259
366.3259,84.26781
366.808,84.15096
367.2901,83.96957
367.7722,83.86952
368.2543,83.86337
368.7365,83.91171
369.2186,84.01057
369.7007,84.16251
370.1828,84.50193
370.6649,84.928
371.147,85.08527
371.6292,84.65707
372.1113,83.72477
372.5934,83.30122
373.0755,83.60394
373.5576,84.12765
374.0397,84.96011
374.5219,85.89848
375.004,86.633
375.4861,87.03527
375.9682,87.28315
376.4503,87.76432
376.9324,88.55331
377.4146,89.49264
377.8967,90.59376
378.3788,91.81499
378.8609,93.15091
379.343,94.58705
379.8251,96.09829
380.3073,97.67675
380.7894,99.34675
381.2715,100.902
381.7536,101.8933
382.2357,103.2284
382.7178,105.4307
383.2,108.1946
383.6821,110.9263
384.1642,113.2557
384.6463,115.2818
385.1284,117.3797
385.6105,119.5014
386.0927,121.7954
386.5748,124.4838
387.0569,127.2373
387.539,129.8124
388.0211,132.138
388.5032,134.101
388.9854,135.5574
389.4675,136.4922
389.9496,136.996
390.4317,136.8908
390.9138,136.4656
391.3959,136.0402
391.8781,135.4755
392.3602,134.2205
392.8423,131.5518
393.3244,127.8065
393.8065,124.6776
394.2886,122.4878
394.7708,120.318
395.2529,117.6155
395.735,114.683
396.2171,111.9141
396.6992,109.3807
397.1813,107.1414
397.6635,105.2619
398.1456,103.7455
398.6277,102.5348
399.1098,101.8305
399.5919,101.2556
400.074,100.3454
400.5562,99.06322
401.0383,97.91798
401.5204,97.15313
402.0025,96.73759
402.4846,96.59705
402.9667,96.72973
403.4489,97.10779
403.931,97.78387
404.4131,98.70334
404.8952,99.70312
405.3773,100.6414
405.8594,101.7362
406.3416,103.2768
406.8237,105.2025
407.3058,107.0519
407.7879,108.5375
408.27,109.8396
408.7521,111.4326
409.2343,113.3477
409.7164,115.4011
410.1985,117.6695
410.6806,119.9948
411.1627,122.0204
411.6448,123.6637
412.1269,125.3799
412.609,127.7138
413.0912,130.802
413.5733,133.9138
414.0554,136.9297
414.5375,140.0788
415.0196,143.5481
415.5017,147.2846
415.9839,151.1366
416.466,155.0189
416.9481,158.9219
417.4302,162.8016
417.9123,166.0128
418.3944,170.0229
418.8766,175.4928
419.3587,181.5521
419.8408,187.244
420.3229,192.3294
420.805,197.4206
421.2871,203.4122
421.7693,210.7003
422.2514,217.4489
422.7335,223.4977
423.2156,229.2324
423.6977,235.1694
424.1798,240.9504
424.662,245.7777
425.1441,249.1602
425.6262,251.1878
426.1083,252.0592
426.5904,251.1278
427.0725,250.2591
427.5547,249.7523
428.0368,249.5657
428.5189,249.6692
429.001,250.054
429.4831,250.7366
429.9652,251.6876
430.4474,252.9097
430.9295,254.6369
431.4116,257.1069
431.8937,259.8472
432.3758,262.7274
432.8579,265.6288
433.3401,268.2066
433.8222,270.4078
434.3043,272.1482
434.7864,273.3959
435.2685,274.192
435.7506,274.1046
436.2328,272.7841
436.7149,270.4789
437.197,267.6776
437.6791,264.2772
438.1612,260.7451
438.6433,257.1144
439.1255,253.5562
439.6076,250.3675
440.0897,247.5841
440.5718,245.3468
441.0539,243.8157
441.536,243.0389
442.0182,242.918
442.5003,243.2841
442.9824,244.4558
443.4645,246.5864
443.9466,249.6915
444.4287,253.8264
444.9109,259.102
445.393,265.2443
445.8751,271.6587
446.3572,278.1108
446.8393,285.1546
447.3214,294.0812
447.8036,302.8259
448.2857,310.0974
448.7678,315.4504
449.2499,318.6597
449.732,319.5189
450.2141,318.046
450.6963,313.814
451.1784,305.1758
451.6605,295.4119
452.1426,284.7718
452.6247,273.6402
453.1068,262.3217
453.589,250.9597
454.0711,239.7734
454.5532,229.2343
455.0353,219.1832
455.5174,210.2302
455.9995,203.2262
456.4817,196.7858
456.9638,190.4361
457.4459,184.1004
457.928,177.8581
458.4101,171.5668
458.8922,165.4039
459.3744,160.0456
459.8565,155.6633
460.3386,151.5334
460.8207,147.3895
461.3028,143.2779
461.7849,139.2982
462.2671,135.4447
462.7492,131.7943
463.2313,128.369
463.7134,125.2012
464.1955,122.3385
464.6776,119.8298
465.1598,117.5364
465.6419,115.2769
466.124,113.0878
466.6061,111.2682
467.0882,110.035
467.5703,109.0373
468.0525,108.0074
468.5346,106.9951
469.0167,106.2127
469.4988,105.7924
469.9809,105.5731
470.463,105.1726
470.9452,104.4993
471.4273,103.8002
471.9094,103.0161
472.3915,102.2535
472.8736,101.6588
473.3557,101.1996
473.8379,100.6843
474.32,99.9546
474.8021,99.01542
475.2842,97.97604
475.7663,96.37502
476.2484,95.27924
476.7306,95.07136
477.2127,95.33561
477.6948,95.62404
478.1769,95.80681
478.659,96.09727
479.1411,96.84768
479.6233,98.11791
480.1054,99.16788
480.5875,99.67498
481.0696,100.3079
481.5517,101.3095
482.0338,102.6749
482.5159,104.4217
482.998,106.6682
483.4802,109.1329
483.9623,111.3456
484.4444,113.3051
484.9265,115.5434
485.4086,118.4992
485.8907,121.5312
486.3729,123.6445
486.855,124.7895
487.3371,126.3938
487.8192,129.2254
488.3013,132.6241
488.7834,135.8724
489.2656,138.9233
489.7477,141.9329
490.2298,144.9698
490.7119,148.0848
491.194,151.4388
491.6761,155.0832
492.1583,158.8643
492.6404,162.9219
493.1225,167.0367
493.6046,170.7981
494.0867,174.1938
494.5688,177.7969
495.051,182.2666
495.5331,187.6833
496.0152,192.7496
496.4973,196.9562
496.9794,201.3527
497.4615,206.6467
497.9437,212.1201
498.4258,216.7253
498.9079,220.0703
499.39,222.7639
499.8721,225.8012
500.3542,229.2992
500.8364,232.1126
501.3185,234.0489
501.8006,235.2859
502.2827,235.9497
502.7648,236.0555
503.2469,235.6179
503.7291,234.4657
504.2112,232.9542
504.6933,231.5398
505.1754,230.2231
505.6575,228.9177
506.1396,227.5834
506.6218,226.2606
507.1039,225.0492
507.586,223.9774
508.0681,222.748
508.5502,221.6075
509.0323,220.0581
509.5145,217.6447
509.9966,214.3436
510.4787,210.2585
510.9608,205.4167
511.4429,199.8895
511.925,194.0269
512.4072,187.8628
512.8893,181.3412
513.3714,174.1627
513.8535,166.8163
514.3356,159.5218
514.8177,152.4527
515.2999,145.8523
515.782,139.9789
516.2641,134.8353
516.7462,130.2022
517.2283,126.2476
517.7104,122.6448
518.1926,119.1973
518.6747,116.0787
519.1568,113.5547
519.6389,111.6836
520.121,110.0526
520.6031,108.2873
521.0853,106.415
521.5674,104.6597
522.0495,103.1557
522.5316,101.4916
523.0137,99.32875
523.4958,96.80627
523.978,94.15987
524.4601,91.28297
524.9422,88.47621
525.4243,85.92337
525.9064,83.58971
526.3885,81.44119
526.8707,79.46665
527.3528,77.62234
527.8349,75.88476
528.317,74.2613
528.7991,72.64283
529.2813,70.92921
529.7634,69.32997
530.2455,67.84933
530.7276,66.56384
531.2097,65.58767
531.6918,64.9642
532.174,64.63361
532.6561,64.58501
533.1382,65.03375
533.6203,65.02487
534.1024,63.89425
534.5845,62.94279
535.0667,62.67061
535.5488,62.929
536.0309,63.42108
536.513,64.08127
536.9951,64.71284
537.4772,64.91784
537.9594,64.68186
538.4415,64.7068
538.9236,65.183
539.4057,65.92246
539.8878,66.83649
540.3699,67.88448
540.8521,68.85509
541.3342,69.52205
541.8163,70.22154
542.2984,71.23817
542.7805,72.54336
543.2626,74.00317
543.7448,75.55594
544.2269,77.26588
544.709,79.23677
545.1911,81.51098
545.6732,84.01767
546.1553,86.82772
546.6375,89.79671
547.1196,92.80856
547.6017,95.93526
548.0838,99.33868
548.5659,103.143
549.048,107.1448
549.5302,110.8769
550.0123,114.13
550.4944,117.6872
550.9765,122.2403
551.4586,126.5997
551.9407,130.0653
552.4229,132.8144
552.905,135.4151
553.3871,137.8931
553.8692,140.6548
554.3513,144.4551
554.8334,149.2765
555.3156,154.227
555.7977,158.9583
556.2798,163.8392
556.7619,169.368
557.244,175.5086
557.7261,182.0245
558.2083,188.5324
558.6904,195.716
559.1725,204.2639
559.6546,213.9717
560.1367,224.222
560.6188,234.625
561.101,245.6322
561.5831,258.0392
562.0652,272.8134
562.5473,286.953
563.0294,301.0926
563.5115,314.0701
563.9937,326.1498
564.4758,336.5133
564.9579,344.0228
565.44,348.2845
565.9221,348.538
566.4042,342.9366
566.8864,331.0979
567.3685,316.352
567.8506,297.969
568.3327,278.2668
568.8148,258.0605
569.2969,237.822
569.7791,219.1555
570.2612,202.4682
570.7433,187.7747
571.2254,175.2979
571.7075,164.868
572.1896,156.0085
572.6718,148.5298
573.1539,142.5163
573.636,138.2369
574.1181,136.0693
574.6002,133.8145
575.0823,130.8392
575.5645,128.4538
576.0466,127.2788
576.5287,127.0546
577.0108,127.3902
577.4929,128.1196
577.975,129.1515
578.4572,130.2982
578.9393,131.4864
579.4214,133.2491
579.9035,135.8436
580.3856,138.7231
580.8677,141.522
581.3499,144.4389
581.832,147.855
582.3141,152.0058
582.7962,156.1961
583.2783,159.6615
583.7604,162.6438
584.2426,165.8652
584.7247,169.4294
585.2068,173.311
585.6889,177.6666
586.171,182.3481
586.6531,186.2934
587.1352,189.0714
587.6173,191.6571
588.0994,194.1371
588.5815,196.6602
589.0637,199.4806
589.5458,202.5927
590.0279,205.6817
590.51,208.3679
590.9921,210.731
591.4742,213.6472
591.9564,217.201
592.4385,221.2302
592.9206,225.9102
593.4027,230.8795
593.8848,235.8208
594.3669,240.7294
594.8491,245.6606
595.3312,250.8735
595.8133,256.1046
596.2954,260.8568
596.7775,265.1309
597.2596,269.0423
597.7418,272.9349
598.2239,276.1807
598.706,277.3552
599.1881,276.3611
599.6702,274.3502
600.1523,271.3868
600.6345,267.5461
601.1166,262.8616
601.5987,257.346
602.0808,250.9102
602.5629,243.4334
603.045,235.3463
603.5272,227.4345
604.0093,219.6974
604.4914,212.1156
604.9735,204.4288
605.4556,197.0854
605.9377,190.2583
606.4199,183.9601
606.902,178.1608
607.3841,172.8588
607.8662,168.028
608.3483,163.7209
608.8304,159.8631
609.3126,156.0534
609.7947,152.1953
610.2768,148.4989
610.7589,145.1767
611.241,142.224
611.7231,139.3998
612.2053,136.7615
612.6874,134.1782
613.1695,131.9122
613.6516,129.5322
614.1337,126.4838
614.6158,122.7314
615.098,118.6488
615.5801,114.4893
616.0622,110.3111
616.5443,106.3353
617.0264,102.4961
617.5085,99.04167
617.9907,96.30789
618.4728,93.77867
618.9549,91.09615
619.437,88.23257
619.9191,85.26282
620.4012,82.01109
620.8834,78.78312
621.3655,75.97781
621.8476,73.59081
622.3297,71.60324
622.8118,70.05141
623.2939,68.74348
623.7761,67.39751
624.2582,66.0055
624.7403,64.63696
625.2224,63.2063
625.7045,61.87983
626.1866,60.78466
626.6688,59.82972
627.1509,58.86338
627.633,57.83783
628.1151,56.85013
628.5972,56.01994
629.0793,55.34857
629.5615,54.82488
630.0436,54.55965
630.5257,54.2246
631.0078,53.56876
631.4899,52.78946
631.972,52.10587
632.4542,51.54327
632.9363,51.07279
633.4184,50.81593
633.9005,50.57035
634.3826,50.00999
634.8647,49.16611
635.3469,48.35685
635.829,47.74524
636.3111,47.32118
636.7932,47.07084
637.2753,47.11015
637.7574,47.08643
638.2396,46.98375
638.7217,46.84241
639.2038,46.65207
639.6859,46.4438
640.168,46.27159
640.6501,46.1582
641.1323,46.08208
641.6144,46.10936
642.0965,46.19292
642.5786,45.87629
643.0607,44.95727
643.5428,44.13781
644.025,43.97328
644.5071,44.30579
644.9892,44.50871
645.4713,44.57867
645.9534,44.52667
646.4355,44.24916
646.9177,43.92112
647.3998,43.71933
647.8819,43.64405
648.364,43.59615
648.8461,43.51123
649.3282,43.40281
649.8104,43.29925
650.2925,43.17489
650.7746,43.14158
651.2567,43.37116
651.7388,43.5339
652.2209,43.41493
652.7031,43.08887
653.1852,42.74276
653.6673,42.38578
654.1494,42.11889
654.6315,42.05367
655.1136,42.13997
655.5958,42.32691
656.0779,42.60133
656.56,42.70583
657.0421,42.36063
657.5242,41.6679
658.0063,41.36144
658.4885,41.90155
658.9706,42.22358
659.4527,42.08288
659.9348,41.85735
660.4169,41.85269
660.899,42.02894
661.3812,42.12695
661.8633,41.94453
662.3454,41.70644
662.8275,41.92897
663.3096,42.58326
663.7917,42.78401
664.2739,42.15284
664.756,41.50691
665.2381,41.71272
665.7202,42.60863
666.2023,42.98492
666.6844,42.2641
667.1666,41.69543
667.6487,41.70033
668.1308,42.04292
668.6129,42.61146
669.095,43.28848
669.5771,43.76576
670.0593,43.78655
670.5414,43.48104
671.0235,43.25648
671.5056,43.10358
671.9877,43.0696
672.4698,43.26106
672.952,43.47103
673.4341,43.48708
673.9162,43.39288
674.3983,43.46754
674.8804,43.81993
675.3625,44.31289
675.8447,44.99927
676.3268,45.71922
676.8089,46.1465
677.291,46.23973
677.7731,46.22394
678.2552,46.26686
678.7374,46.3765
679.2195,46.61118
679.7016,47.11245
680.1837,47.47987
680.6658,47.48895
681.1479,47.52873
681.6301,47.84594
682.1122,48.40005
682.5943,49.05053
683.0764,49.82804
683.5585,50.48772
684.0406,50.63335
684.5228,50.43117
685.0049,50.46635
685.487,50.86036
685.9691,51.29978
686.4512,51.55972
686.9333,51.64303
687.4155,51.55928
687.8976,51.16581
688.3797,50.79932
688.8618,50.67246
689.3439,50.41039
689.826,49.63451
690.3082,48.4951
690.7903,47.43071
691.2724,46.65905
691.7545,46.08649
692.2366,45.64149
692.7188,45.30139
693.2009,44.88443
693.683,44.37286
694.1651,43.75126
694.6472,42.97741
695.1293,42.0866
695.6115,41.22858
696.0936,40.34621
696.5757,39.58696
697.0578,39.0785
697.5399,38.61116
698.022,37.93322
698.5042,37.15722
698.9863,36.63749
699.4684,36.56757
699.9505,36.68269
700.4326,36.57886
700.9147,36.25706
701.3969,35.81219
701.879,35.16415
702.3611,34.61375
702.8432,34.43826
703.3253,34.45272
703.8074,34.21478
704.2896,33.59224
704.7717,33.10022
705.2538,33.04346
705.7359,33.03123
706.218,32.68177
706.7001,32.10437
707.1823,31.63834
707.6644,31.43291
708.1465,31.37132
708.6286,31.29085
709.1107,31.1911
709.5928,31.09493
710.075,31.05052
710.5571,30.90408
711.0392,30.45922
711.5213,29.94153
712.0034,29.6506
712.4855,29.6247
712.9677,29.62632
713.4498,29.66011
713.9319,29.62159
714.414,29.32205
714.8961,28.89725
715.3782,28.69934
715.8604,28.83835
716.3425,29.02133
716.8246,28.84517
717.3067,28.32207
717.7888,28.13093
718.2709,28.49581
718.7531,28.70027
719.2352,28.30601
719.7173,27.80992
720.1994,27.68222
720.6815,27.91351
721.1636,28.1351
721.6458,28.30951
722.1279,28.35155
722.61,28.05244
723.0921,27.61471
723.5742,27.4837
724.0563,27.73005
724.5385,27.95653
725.0206,27.7698
725.5027,27.26218
725.9848,27.0045
726.4669,27.07365
726.949,27.19357
727.4312,27.43733
727.9132,27.5993
728.3953,27.46216
728.8774,27.12551
729.3596,26.92452
729.8417,27.03801
730.3238,27.15472
730.8059,27.04866
731.288,26.84516
731.7701,26.70908
732.2523,26.66595
732.7344,26.70292
733.2165,26.82153
733.6986,26.97363
734.1807,27.01855
734.6628,26.90752
735.145,26.87911
735.6271,26.99396
736.1092,27.13455
736.5913,27.27874
737.0734,27.39577
737.5555,27.4148
738.0377,27.29396
738.5198,27.22059
739.0019,27.38864
739.484,27.5708
739.9661,27.4624
740.4482,27.14701
740.9304,26.93208
741.4125,26.94939
741.8946,27.08921
742.3767,27.22037
742.8588,27.34777
743.3409,27.33553
743.8231,27.10954
744.3052,26.89143
744.7873,26.6525
745.2694,26.53076
745.7515,26.75627
746.2336,27.31334
746.7158,27.70035
747.1979,27.59115
747.68,27.44296
748.1621,27.63919
748.6442,27.98519
749.1263,28.13622
749.6085,28.02926
750.0906,27.82349
750.5727,27.6243
751.0548,27.47915
751.5369,27.61513
752.019,28.11941
752.5012,28.52106
752.9833,28.69983
753.4654,28.80673
753.9475,28.88886
754.4296,28.98948
754.9117,29.25468
755.3939,29.87255
755.876,30.32438
756.3581,30.27284
756.8402,30.07865
757.3223,30.06482
757.8044,30.2298
758.2866,30.42507
758.7687,30.57587
759.2508,30.79415
759.7329,31.37444
760.215,32.29903
760.6971,32.69182
761.1793,32.32088
761.6614,32.12773
762.1435,32.68355
762.6256,33.54238
763.1077,33.96778
763.5898,33.93245
764.072,33.86464
764.5541,33.83938
765.0362,33.76736
765.5183,33.50575
766.0004,33.22202
766.4825,33.17735
766.9647,33.3862
767.4468,33.60618
767.9289,33.64808
768.411,33.56013
768.8931,33.4015
769.3752,33.17915
769.8574,33.1405
770.3395,33.41247
770.8216,33.62035
771.3037,33.42097
771.7858,32.88379
772.2679,32.42703
772.7501,31.96023
773.2322,31.69458
773.7143,31.82021
774.1964,31.98485
774.6785,31.98669
775.1606,31.84977
775.6428,31.66171
776.1249,31.45433
776.607,31.20484
777.0891,30.85489
777.5712,30.45803
778.0533,30.09168
778.5355,29.77448
779.0176,29.65842
779.4997,29.83844
779.9818,30.10329
780.4639,30.139
780.946,29.91611
781.4282,29.74853
781.9103,29.60375
782.3924,29.5638
782.8745,29.80123
783.3566,30.0272
783.8387,29.92596
784.3209,29.55704
784.803,29.30651
785.2851,29.40625
785.7672,29.57633
786.2493,29.56963
786.7314,29.48677
787.2136,29.51704
787.6957,29.67281
788.1778,29.82358
788.6599,29.58152
789.142,30.09165
789.6241,30.45111
790.1063,30.66808
790.5884,30.31546
791.0705,30.69829
791.5526,30.78639
792.0347,30.8624
792.5168,31.34872
792.999,31.07899
793.4811,31.5588
793.9632,31.7394
794.4453,32.05695
794.9274,32.07796
795.4095,32.19053
795.8917,32.59981
796.3738,32.84478
796.8559,32.83164
797.338,33.1579
797.8201,32.87777
798.3022,33.12973
798.7844,33.61133
799.2665,33.61309
799.7486,33.94476
800.2307,34.15079
800.7128,33.78583
801.1949,34.41386
801.6771,34.28369
802.1592,34.46637
802.6413,34.78708
803.1234,35.13918
803.6055,35.63391
804.0876,36.04374
804.5698,36.12505
805.0519,36.10025
805.534,36.36423
806.0161,37.00854
806.4982,37.61924
806.9803,37.84058
807.4625,37.89809
807.9446,38.06937
808.4267,38.35268
808.9088,38.72742
809.3909,39.186
809.873,39.68288
810.3552,40.1872
810.8373,40.68606
811.3194,41.08442
811.8015,41.32514
812.2836,41.62706
812.7657,41.95684
813.2479,42.43436
813.73,43.27098
814.2121,44.27838
814.6942,45.0332
815.1763,45.42083
815.6584,45.7781
816.1406,46.17872
816.6227,46.62671
817.1048,47.23103
817.5869,47.85588
818.069,48.15001
818.5511,48.04617
819.0333,48.01229
819.5154,48.52808
819.9975,49.46396
820.4796,50.50542
820.9617,51.64674
821.4438,52.59246
821.926,53.23047
822.4081,53.80876
822.8902,54.56027
823.3723,55.44748
823.8544,56.21851
824.3365,56.64684
824.8187,57.32723
825.3008,58.53844
825.7829,59.72384
826.265,60.6038
826.7471,61.26015
827.2292,61.84004
827.7114,62.374
828.1935,62.86512
828.6756,63.46348
829.1577,63.9029
829.6398,63.79284
830.1219,63.29779
830.6041,62.81503
831.0862,62.467
831.5683,62.22578
832.0504,62.12055
832.5325,62.0341
833.0146,61.42605
833.4968,60.19827
833.9789,59.26819
834.461,58.9132
834.9431,58.57774
835.4252,57.78636
835.9073,56.75016
836.3895,56.1549
836.8716,56.28269
837.3537,56.07017
837.8358,55.11861
838.3179,54.15229
838.8,53.43336
839.2822,52.96334
839.7643,52.79605
840.2464,52.89597
840.7285,52.94113
841.2106,52.58874
841.6927,52.20143
842.1749,52.26051
842.657,52.6405
843.1391,53.02372
843.6212,53.34856
844.1033,53.66422
844.5854,54.00108
845.0676,54.36069
845.5497,54.72292
846.0318,55.06801
846.5139,55.54529
846.996,56.17926
847.4781,56.91122
847.9603,57.75236
848.4424,58.64953
848.9245,59.52324
849.4066,60.37064
849.8887,61.21586
850.3708,61.96764
850.853,62.82943
851.3351,64.04683
851.8172,65.28281
852.2993,66.1129
852.7814,66.63303
853.2635,67.31214
853.7457,68.38614
854.2278,69.67412
854.7099,71.08274
855.192,72.54909
855.6741,73.88842
856.1563,75.12547
856.6384,76.49471
857.1205,78.10909
857.6026,79.78835
858.0847,81.26894
858.5668,82.55954
859.049,84.03941
859.5311,85.8135
860.0132,87.4492
860.4953,88.5984
860.9774,89.883
861.4595,92.1002
861.9417,94.91727
862.4238,97.02728
862.9059,97.9155
863.388,98.98567
863.8701,100.8436
864.3522,102.6099
864.8344,103.6347
865.3165,104.2088
865.7986,104.8729
866.2807,105.7539
866.7628,106.5779
867.2449,107.1208
867.7271,107.5098
868.2092,107.7685
868.6913,108.0324
869.1733,108.7588
869.6555,109.9966
870.1376,111.3297
870.6197,112.4954
871.1018,113.3857
871.5839,113.5402
872.066,112.7935
872.5482,112.9466
873.0303,114.3563
873.5124,115.8972
873.9945,117.1918
874.4766,118.2443
874.9587,118.9664
875.4409,119.3105
875.923,119.8852
876.4051,120.894
876.8872,121.8616
877.3693,122.6225
877.8514,123.3463
878.3336,124.3448
878.8157,125.4014
879.2978,125.9003
879.7799,125.5418
880.262,125.0322
880.7441,124.8878
881.2263,124.8464
881.7084,124.5648
882.1905,124.1114
882.6726,123.7111
883.1547,123.4337
883.6368,123.2181
884.119,123.0116
884.6011,122.8171
885.0832,122.6908
885.5653,122.6307
886.0474,122.3442
886.5295,121.7367
887.0117,121.2074
887.4938,121.1656
887.9759,121.1516
888.458,120.0535
888.9401,117.4753
889.4222,115.3654
889.9044,114.0851
890.3865,112.825
890.8686,111.4536
891.3507,109.9636
891.8328,108.1614
892.3149,106.1812
892.7971,104.6662
893.2792,103.923
893.7613,103.4199
894.2434,102.9158
894.7255,102.5636
895.2076,102.5443
895.6898,102.7834
896.1719,103.0366
896.654,103.2437
897.1361,103.7334
897.6182,104.9421
898.1003,106.5526
898.5825,107.9001
899.0646,109.1161
899.5467,110.6542
900.0288,112.6114
900.5109,114.9506
900.993,117.6304
901.4752,120.6691
901.9573,124.1757
902.4394,128.2125
902.9215,132.223
903.4036,136.2907
903.8857,140.0094
904.3679,142.9921
904.85,145.7845
905.3321,148.8567
905.8142,152.1967
906.2963,156.6662
906.7784,163.3994
907.2606,169.574
907.7427,174.3198
908.2248,178.9444
908.7069,184.4893
909.189,190.4547
909.6711,195.703
910.1533,199.9533
910.6354,204.28
911.1175,209.4416
911.5996,214.6993
912.0817,219.5443
912.5638,224.0124
913.046,228.3264
913.5281,232.4165
914.0102,235.7785
914.4923,238.0855
914.9744,239.6189
915.4565,241.0438
915.9387,242.003
916.4208,241.0947
916.9029,238.3572
917.385,235.3745
917.8671,232.813
918.3492,229.4741
918.8314,223.823
919.3135,216.1531
919.7956,208.1796
920.2777,199.6812
920.7598,192.0863
921.2419,186.1495
921.7241,179.9853
922.2062,172.1221
922.6883,163.4147
923.1704,155.6271
923.6525,148.8878
924.1346,142.5294
924.6168,136.7021
925.0989,131.0647
925.581,125.4168
926.0631,120.0085
926.5452,115.1216
927.0273,110.7033
927.5095,106.4504
927.9916,102.2515
928.4737,98.30196
928.9558,94.76787
929.4379,91.45342
929.92,88.18591
930.4022,85.0278
930.8843,82.11456
931.3664,79.4852
931.8485,77.06613
932.3306,74.83993
932.8127,72.76168
933.2949,70.75024
933.777,68.84041
934.2591,67.19367
934.7412,65.78654
935.2233,64.3178
935.7054,62.64222
936.1876,60.9259
936.6697,59.3482
937.1518,57.93334
937.6339,56.9298
938.116,56.38229
938.5981,55.72058
939.0803,54.77909
939.5624,53.87561
940.0445,53.26643
940.5266,52.82154
941.0087,52.17707
941.4908,51.22608
941.973,50.46446
942.4551,49.91616
942.9372,49.52602
943.4193,49.447
943.9014,49.38839
944.3835,49.00104
944.8657,48.39288
945.3478,48.10347
945.8299,48.47409
946.312,48.64732
946.7941,48.23388
947.2762,47.7932
947.7584,47.62536
948.2405,47.65743
948.7226,47.76914
949.2047,47.93428
949.6868,48.16246
950.1689,48.53322
950.6511,48.86551
951.1332,48.92418
951.6153,48.92676
952.0974,49.21986
952.5795,49.71429
953.0616,50.04037
953.5438,50.06739
954.0259,50.06684
954.508,50.32353
954.9901,50.72649
955.4722,51.09832
955.9543,51.42574
956.4365,51.65578
956.9186,51.78206
957.4007,51.82644
957.8828,51.793
958.3649,51.75805
958.847,51.90056
959.3292,52.20587
959.8113,52.31279
960.2934,52.22278
960.7755,51.8702
961.2576,51.14358
961.7397,50.47672
962.2219,50.23164
962.704,50.33423
963.1861,50.56892
963.6682,51.13329
964.1503,51.18908
964.6324,50.20989
965.1146,49.6334
965.5967,50.30037
966.0788,51.30723
966.5609,51.6381
967.043,51.40717
967.5251,51.39999
968.0073,51.73035
968.4894,52.15085
968.9715,52.63936
969.4536,53.21002
969.9357,53.88836
970.4178,54.64488
970.9,55.48833
971.3821,56.40042
971.8642,57.17466
972.3463,57.53347
972.8284,58.01758
973.3105,58.99697
973.7927,60.12513
974.2748,60.94941
974.7569,61.69334
975.239,62.98088
975.7211,64.95008
976.2032,66.86119
976.6854,68.16457
977.1675,69.18967
977.6496,70.33158
978.1317,71.42992
978.6138,72.18783
979.0959,72.61064
979.5781,72.91422
980.0602,73.19431
980.5423,73.16896
981.0244,72.45783
981.5065,71.22497
981.9886,69.7241
982.4708,68.03451
982.9529,66.62952
983.435,65.54837
983.9171,64.07235
984.3992,61.71051
984.8813,58.94743
985.3635,56.63391
985.8456,54.7385
986.3277,52.65623
986.8098,50.35369
987.2919,48.42982
987.774,47.06779
988.2562,45.97511
988.7383,44.97342
989.2204,43.98901
989.7025,42.796
990.1846,41.28484
990.6667,40.13795
991.1489,39.52201
991.631,38.82741
992.1131,37.72858
992.5952,36.71738
993.0773,36.33653
993.5594,36.42696
994.0416,36.25916
994.5237,35.69977
995.0058,35.16217
995.4879,34.6469
995.97,34.15474
996.4521,33.72609
996.9343,33.28875
997.4164,32.64922
997.8985,31.90014
998.3806,31.5774
998.8627,32.02798
999.3448,32.35554
999.827,32.43282
1000.309,32.32804
1000.791,31.94855
1001.273,31.48639
1001.755,31.14448
1002.238,30.94542
1002.72,30.85942
1003.202,30.92897
1003.684,31.01114
1004.166,31.07171
1004.648,31.09325
1005.13,30.98078
1005.612,30.85771
1006.094,30.95
1006.577,31.26639
1007.059,31.5648
1007.541,31.73338
1008.023,31.81835
1008.505,31.62494
1008.987,31.54213
1009.469,32.29858
1009.951,33.48373
1010.433,34.03292
1010.916,33.74721
1011.398,33.51518
1011.88,34.0278
1012.362,34.80196
1012.844,35.28247
1013.326,35.59358
1013.808,35.91552
1014.29,36.28679
1014.773,36.77238
1015.255,37.38319
1015.737,38.02519
1016.219,38.63424
1016.701,39.17783
1017.183,39.61785
1017.665,39.93824
1018.147,40.00483
1018.629,39.86142
1019.112,39.90694
1019.594,40.29583
1020.076,40.70616
1020.558,40.81049
1021.04,40.66059
1021.522,40.35028
1022.004,39.90536
1022.486,39.57904
1022.969,39.39635
1023.451,39.12547
1023.933,38.65684
1024.415,38.15143
1024.897,37.82463
1025.379,37.59809
1025.861,37.02244
1026.343,36.0648
1026.825,35.42732
1027.308,35.21394
1027.79,35.15028
1028.272,35.15483
1028.754,35.08474
1029.236,34.70992
1029.718,34.1036
1030.2,33.82989
1030.682,33.92926
1031.165,34.2351
1031.647,34.88283
1032.129,35.23302
1032.611,34.85968
1033.093,34.28257
1033.575,34.19216
1034.057,34.55093
1034.539,34.82835
1035.021,35.0597
1035.504,35.09474
1035.986,34.76353
1036.468,34.54263
1036.95,34.67416
1037.432,35.00097
1037.914,35.3615
1038.396,35.74837
1038.878,36.00085
1039.36,35.98256
1039.843,36.1055
1040.325,36.6743
1040.807,36.98264
1041.289,36.33918
1041.771,35.56947
1042.253,35.83253
1042.735,37.06007
1043.217,37.84577
1043.7,37.86054
1044.182,37.96013
1044.664,38.31503
1045.146,38.58877
1045.628,38.48097
1046.11,38.33081
1046.592,38.62835
1047.074,39.30742
1047.557,39.66722
1048.039,39.31038
1048.521,39.20036
1049.003,39.61708
1049.485,40.07983
1049.967,40.31728
1050.449,40.52872
1050.931,40.97154
1051.413,41.61495
1051.896,42.19698
1052.378,42.61401
1052.86,43.09406
1053.342,43.80437
1053.824,44.4362
1054.306,44.75198
1054.788,44.9729
1055.27,45.26364
1055.752,45.67731
1056.235,46.37175
1056.717,47.52904
1057.199,48.57012
1057.681,49.36899
1058.163,49.98385
1058.645,50.33603
1059.127,50.60403
1059.609,51.07668
1060.092,51.63524
1060.574,51.7932
1061.056,51.32787
1061.538,50.88098
1062.02,50.88603
1062.502,50.69573
1062.984,49.76552
1063.466,48.64159
1063.948,47.82551
1064.431,47.32121
1064.913,46.99756
1065.395,46.86745
1065.877,46.63484
1066.359,45.99422
1066.841,45.45771
1067.323,45.43084
1067.805,45.52394
1068.287,45.24153
1068.77,44.77639
1069.252,44.68101
1069.734,45.09914
1070.216,45.66151
1070.698,46.3647
1071.18,46.99196
1071.662,47.22002
1072.144,47.50927
1072.627,48.34875
1073.109,49.56681
1073.591,50.73893
1074.073,51.7737
1074.555,52.94389
1075.037,54.51311
1075.519,56.06351
1076.001,57.39075
1076.484,58.60209
1076.966,59.73129
1077.448,60.83754
1077.93,61.97149
1078.412,63.15696
1078.894,64.51495
1079.376,66.13841
1079.858,67.87484
1080.34,69.7187
1080.823,71.57956
1081.305,73.57784
1081.787,75.43895
1082.269,76.65336
1082.751,77.28416
1083.233,78.07992
1083.715,79.34335
1084.197,80.73741
1084.679,82.35479
1085.161,83.77456
1085.644,84.92754
1086.126,85.54951
1086.608,85.26083
1087.09,84.14075
1087.572,82.65254
1088.054,80.96204
1088.536,78.81434
1089.018,75.92161
1089.501,72.73803
1089.983,69.48909
1090.465,66.13441
1090.947,62.51524
1091.429,58.7678
1091.911,55.26017
1092.393,52.08324
1092.875,49.09972
1093.358,46.06672
1093.84,43.43957
1094.322,41.61103
1094.804,40.09697
1095.286,38.51896
1095.768,36.89037
1096.25,35.274
1096.732,33.67235
1097.214,32.33723
1097.697,31.52513
1098.179,30.75195
1098.661,29.67694
1099.143,28.74428
1099.625,28.39188
1100.107,28.32771
1100.589,28.12762
1101.071,27.74553
1101.553,27.30109
1102.036,26.71664
1102.518,26.26547
1103.0,26.08074
1103.482,25.97962
1103.964,25.96654
1104.446,25.91192
1104.928,25.63896
1105.41,25.18934
1105.893,24.77864
1106.375,24.40658
1106.857,24.16697
1107.339,24.11701
1107.821,24.15082
1108.303,24.47357
1108.785,24.64639
1109.267,24.08379
1109.75,23.12118
1110.232,22.65057
1110.714,22.83651
1111.196,22.99728
1111.678,23.02312
1112.16,23.0792
1112.642,23.37854
1113.124,23.52876
1113.606,23.11942
1114.089,22.49235
1114.571,22.21783
1115.053,22.32082
1115.535,22.3691
1116.017,22.35463
1116.499,22.29256
1116.981,22.13748
1117.463,21.99812
1117.945,21.94602
1118.428,21.90337
1118.91,21.75805
1119.392,21.54304
1119.874,21.45394
1120.356,21.56729
1120.838,21.60915
1121.32,21.53876
1121.802,21.47436
1122.285,21.42976
1122.767,21.43806
1123.249,21.5639
1123.731,21.72883
1124.213,21.7325
1124.695,21.55653
1125.177,21.38633
1125.659,21.20741
1126.141,21.10195
1126.624,21.13335
1127.106,21.07508
1127.588,20.74624
1128.07,20.38647
1128.552,20.36729
1129.034,20.63727
1129.516,20.74906
1129.998,20.69088
1130.48,20.56651
1130.963,20.3765
1131.445,20.16828
1131.927,19.94598
1132.409,19.80201
1132.891,19.84284
1133.373,19.98511
1133.855,19.97967
1134.337,19.84021
1134.82,19.83941
1135.302,19.97959
1135.784,20.10049
1136.266,20.16385
1136.748,20.13702
1137.23,19.99813
1137.712,19.76342
1138.194,19.36606
1138.677,18.93585
1139.159,19.03297
1139.641,19.51796
1140.123,19.70288
1140.605,19.56064
1141.087,19.59965
1141.569,20.00314
1142.051,20.33698
1142.533,20.1862
1143.016,19.77563
1143.498,19.33598
1143.98,18.97258
1144.462,19.00668
1144.944,19.30575
1145.426,19.44174
1145.908,19.35077
1146.39,19.30656
1146.872,19.47589
1147.355,19.63083
1147.837,19.53347
1148.319,19.316
1148.801,19.06061
1149.283,18.83596
1149.765,18.76631
1150.247,18.81529
1150.729,18.8349
1151.212,18.78436
1151.694,18.79859
1152.176,19.0599
1152.658,19.27097
1153.14,19.24383
1153.622,19.07974
1154.104,18.73013
1154.586,18.38561
1155.068,18.33929
1155.551,18.58345
1156.033,18.86949
1156.515,19.17542
1156.997,19.36675
1157.479,19.34506
1157.961,19.26747
1158.443,19.16621
1158.925,19.07706
1159.407,19.02662
1159.89,19.01091
1160.372,19.04218
1160.854,19.13955
1161.336,19.11039
1161.818,18.76815
1162.3,18.55967
1162.782,18.63884
1163.264,18.73308
1163.747,18.74171
1164.229,18.68628
1164.711,18.54556
1165.193,18.36084
1165.675,18.38689
1166.157,18.76911
1166.639,18.85947
1167.121,18.50837
1167.604,18.32739
1168.086,18.52167
1168.568,18.78523
1169.05,18.9372
1169.532,18.96528
1170.014,18.82236
1170.496,18.5315
1170.978,18.31213
1171.46,18.16384
1171.943,18.14979
1172.425,18.27819
1172.907,18.48531
1173.389,18.74886
1173.871,19.01561
1174.353,19.26496
1174.835,19.38223
1175.317,18.95802
1175.799,18.23867
1176.282,18.14987
1176.764,18.54876
1177.246,18.78716
1177.728,18.7639
1178.21,18.72819
1178.692,18.79846
1179.174,18.8473
1179.656,18.7234
1180.139,18.54191
1180.621,18.4367
1181.103,18.37718
1181.585,18.32198
1182.067,18.27187
1182.549,18.22634
1183.031,18.19488
1183.513,18.22934
1183.995,18.38018
1184.478,18.50466
1184.96,18.52098
1185.442,18.48156
1185.924,18.38637
1186.406,18.28264
1186.888,18.17562
1187.37,18.11069
1187.852,18.22033
1188.334,18.53156
1188.817,18.69135
1189.299,18.5877
1189.781,18.38903
1190.263,17.92858
1190.745,17.61691
1191.227,17.75553
1191.709,18.03092
1192.191,18.15783
1192.674,18.17643
1193.156,18.23913
1193.638,18.39505
1194.12,18.31638
1194.602,17.86108
1195.084,17.66447
1195.566,17.94508
1196.048,18.08928
1196.531,17.70434
1197.013,17.27452
1197.495,17.44676
1197.977,18.03502
1198.459,18.36488
1198.941,18.44094
1199.423,18.28248
1199.905,17.92346
1200.387,17.73752
1200.87,17.80697
1201.352,17.87696
1201.834,17.78955
1202.316,17.70699
1202.798,17.90458
1203.28,18.17879
1203.762,18.10812
1204.244,17.8664
1204.726,17.74781
1205.209,17.77571
1205.691,17.95187
1206.173,18.23701
1206.655,18.43071
1207.137,18.39752
1207.619,18.36224
1208.101,18.59392
1208.583,18.74826
1209.066,18.50036
1209.548,18.10027
1210.03,17.74506
1210.512,17.49111
1210.994,17.44101
1211.476,17.60866
1211.958,17.67323
1212.44,17.5213
1212.922,17.34229
1213.405,17.00093
1213.887,16.85205
1214.369,17.16955
1214.851,17.56965
1215.333,17.74595
1215.815,17.74693
1216.297,17.67494
1216.779,17.51702
1217.261,17.48797
1217.744,17.62795
1218.226,17.66259
1218.708,17.53433
1219.19,17.48392
1219.672,17.63109
1220.154,17.71979
1220.636,17.48646
1221.118,17.09104
1221.6,16.82464
1222.083,16.7003
1222.565,16.84696
1223.047,17.17299
1223.529,17.33258
1224.011,17.29927
1224.493,17.23795
1224.975,17.21665
1225.457,17.20567
1225.94,17.17979
1226.422,17.15875
1226.904,17.18476
1227.386,17.20322
1227.868,17.12133
1228.35,17.01657
1228.832,17.05341
1229.314,17.17292
1229.797,17.11401
1230.279,16.42531
1230.761,16.77761
1231.243,16.97927
1231.725,17.03837
1232.207,16.52795
1232.689,16.75295
1233.171,16.68322
1233.653,16.60141
1234.135,16.92992
1234.618,16.50235
1235.1,16.82434
1235.582,16.84712
1236.064,17.00685
1236.546,16.87003
1237.028,16.8248
1237.51,17.07621
1237.992,17.16337
1238.475,16.99243
1238.957,17.16086
1239.439,16.72291
1239.921,16.81707
1240.403,17.1408
1240.885,16.98476
1241.367,17.15861
1241.849,17.20681
1242.332,16.68404
1242.814,17.15427
1243.296,17.19505
1243.778,16.79488
1244.26,16.78306
1244.742,16.59146
1245.224,16.53483
1245.706,16.82836
1246.188,17.12728
1246.671,17.08196
1247.153,16.91989
1247.635,16.98513
1248.117,17.18925
1248.599,17.16156
1249.081,16.80353
1249.563,16.63651
1250.045,16.91489
1250.527,17.06763
1251.01,17.01546
1251.492,16.87562
1251.974,16.60436
1252.456,16.43846
1252.938,16.64756
1253.42,17.00529
1253.902,16.95756
1254.384,16.54522
1254.867,16.41014
1255.349,16.54077
1255.831,16.76064
1256.313,17.0272
1256.795,17.13821
1257.277,17.03015
1257.759,16.77862
1258.241,16.40288
1258.724,16.12992
1259.206,16.38316
1259.688,16.75601
1260.17,16.67881
1260.652,16.41349
1261.134,16.33547
1261.616,16.39996
1262.098,16.39009
1262.58,16.2923
1263.063,16.34216
1263.545,16.6984
1264.027,16.98576
1264.509,17.176
1264.991,17.18629
1265.473,16.81548
1265.955,16.45225
1266.437,16.38658
1266.919,16.40333
1267.402,16.13511
1267.884,15.69058
1268.366,15.82546
1268.848,16.64588
1269.33,17.01822
1269.812,16.90569
1270.294,16.59308
1270.776,16.14918
1271.259,15.88662
1271.741,15.96258
1272.223,16.1758
1272.705,16.34741
1273.187,16.47742
1273.669,16.54158
1274.151,16.58253
1274.633,16.69388
1275.115,16.81643
1275.598,16.8547
1276.08,16.79539
1276.562,16.61685
1277.044,16.31578
1277.526,16.10976
1278.008,16.09508
1278.49,16.15951
1278.972,16.37794
1279.454,16.53806
1279.937,16.47242
1280.419,16.39147
1280.901,16.5056
1281.383,16.65728
1281.865,16.50845
1282.347,16.09204
1282.829,15.91579
1283.311,15.98979
1283.794,16.13454
1284.276,16.33668
1284.758,16.53382
1285.24,16.70557
1285.722,16.8247
1286.204,16.87651
