Raman Shift,Intensity
90.26532,272.6319
90.74744,272.6436
91.22955,274.841
91.71167,278.196
92.19379,281.9261
92.6759,285.9892
93.15802,288.7818
93.64014,287.9891
94.12225,284.9046
94.60437,283.1603
95.08649,284.2926
95.5686,286.8542
96.05072,287.7037
96.53284,287.0182
97.01495,285.8059
97.49707,284.8246
97.97919,284.0482
98.4613,283.5419
98.94342,283.4195
99.42554,283.6376
99.90765,283.5556
100.3898,283.0435
100.8719,282.4998
101.354,282.523
101.8361,283.1976
102.3182,284.0383
102.8004,284.8505
103.2825,285.5506
103.7646,286.6304
104.2467,288.3337
104.7288,290.3068
105.2109,291.5838
105.6931,291.4591
106.1752,291.7226
106.6573,293.2201
107.1394,296.8102
107.6215,300.1245
108.1036,302.9154
108.5858,305.3326
109.0679,308.1306
109.55,311.7838
110.0321,315.4975
110.5142,318.8264
110.9963,322.1788
111.4785,324.7586
111.9606,325.907
112.4427,325.7158
112.9248,326.5409
113.4069,329.9044
113.889,333.7936
114.3712,336.629
114.8533,337.4693
115.3354,337.7821
115.8175,338.1578
116.2996,338.6964
116.7817,338.5175
117.2639,336.7269
117.746,334.1962
118.2281,332.0296
118.7102,330.3284
119.1923,329.3
119.6744,329.2559
120.1566,330.3908
120.6387,331.6992
121.1208,332.4785
121.6029,332.9622
122.085,333.6202
122.5671,334.7511
123.0493,336.1339
123.5314,337.6067
124.0135,339.2301
124.4956,340.6978
124.9777,341.4204
125.4598,341.6111
125.942,342.0897
126.4241,343.5837
126.9062,345.6988
127.3883,347.6674
127.8704,349.1531
128.3525,350.6509
128.8347,353.0708
129.3168,356.3785
129.7989,359.7421
130.281,362.5016
130.7631,364.7584
131.2452,366.9859
131.7274,369.0963
132.2095,371.3543
132.6916,374.6257
133.1737,379.0448
133.6558,383.7696
134.1379,388.0203
134.6201,391.8107
135.1022,395.8207
135.5843,400.0086
136.0664,404.4947
136.5485,410.3751
137.0306,418.1531
137.5128,426.2077
137.9949,432.337
138.477,435.9741
138.9591,440.5887
139.4412,447.4185
139.9233,456.4975
140.4055,466.4458
140.8876,477.356
141.3697,489.083
141.8518,501.5821
142.3339,515.085
142.816,528.7179
143.2982,542.7687
143.7803,558.4695
144.2624,570.0087
144.7445,575.7224
145.2266,577.7763
145.7087,580.6178
146.1909,582.9449
146.673,587.7513
147.1551,596.1976
147.6372,607.9272
148.1193,623.8138
148.6014,644.7569
149.0836,669.9405
149.5657,697.5332
150.0478,726.5141
150.5299,758.0828
151.012,793.0467
151.4941,836.5494
151.9763,876.9327
152.4584,917.3854
152.9405,955.8998
153.4226,983.541
153.9047,1002.582
154.3868,1008.66
154.869,999.3942
155.3511,966.3487
155.8332,926.6974
156.3153,879.8099
156.7974,826.8311
157.2795,776.6208
157.7617,729.3044
158.2438,686.3918
158.7259,648.9742
159.208,617.6287
159.6901,591.5026
160.1722,570.9347
160.6544,555.8187
161.1365,544.2425
161.6186,537.9718
162.1007,533.9797
162.5828,529.3163
163.0649,523.377
163.5471,516.3439
164.0292,507.7398
164.5113,497.5484
164.9934,487.8202
165.4755,479.4594
165.9576,472.1369
166.4398,465.5521
166.9219,459.247
167.404,453.7718
167.8861,449.646
168.3682,446.8955
168.8503,444.9414
169.3325,443.5423
169.8146,442.6806
170.2967,442.3408
170.7788,442.3417
171.2609,442.9571
171.743,444.3807
172.2252,446.6181
172.7073,449.7519
173.1894,454.2959
173.6715,459.8614
174.1536,465.3987
174.6357,469.33
175.1179,473.4904
175.6,480.3624
176.0821,490.3143
176.5642,501.6514
177.0463,512.7285
177.5284,523.8652
178.0106,535.84
178.4927,549.2611
178.9748,563.8114
179.4569,579.6659
179.939,597.8868
180.4211,613.9963
180.9033,623.6309
181.3854,626.9952
181.8675,624.976
182.3496,616.1617
182.8317,602.4814
183.3138,587.421
183.796,570.887
184.2781,554.6981
184.7602,541.6047
185.2423,531.3837
185.7244,523.2121
186.2065,515.8438
186.6887,509.9054
187.1708,507.9146
187.6529,510.6468
188.135,516.3245
188.6171,522.0775
189.0992,527.9713
189.5814,534.6258
190.0635,543.3668
190.5456,553.7728
191.0277,562.2048
191.5098,568.3458
191.9919,572.3229
192.4741,573.9152
192.9562,573.0719
193.4383,571.0087
193.9204,567.8982
194.4025,563.8563
194.8846,560.8237
195.3668,558.8934
195.8489,558.2375
196.331,559.3837
196.8131,562.4044
197.2952,566.6459
197.7773,571.4206
198.2595,576.6708
198.7416,584.2469
199.2237,594.511
199.7058,607.0205
200.1879,619.9908
200.67,633.109
201.1522,648.7065
201.6343,668.1102
202.1164,691.285
202.5985,718.7384
203.0806,750.1025
203.5627,785.7402
204.0449,827.0847
204.527,874.9755
205.0091,925.8058
205.4912,979.4108
205.9733,1037.644
206.4554,1088.713
206.9376,1135.267
207.4197,1172.422
207.9018,1182.582
208.3839,1163.419
208.866,1122.958
209.3481,1062.232
209.8303,975.0618
210.3124,893.7679
210.7945,820.6901
211.2766,756.5441
211.7587,701.8535
212.2408,657.3452
212.723,620.6053
213.2051,590.088
213.6872,566.4112
214.1693,546.9622
214.6514,532.4698
215.1335,522.0129
215.6157,511.9604
216.0978,501.8297
216.5799,492.8092
217.062,485.7906
217.5441,481.4343
218.0262,477.0436
218.5084,472.0008
218.9905,466.6481
219.4726,463.1777
219.9547,462.5868
220.4368,462.0965
220.9189,459.5787
221.4011,453.4673
221.8832,449.5974
222.3653,449.4203
222.8474,451.8704
223.3295,451.7929
223.8116,447.5479
224.2938,443.3752
224.7759,442.0661
225.258,445.1339
225.7401,447.449
226.2222,448.7114
226.7043,448.9527
227.1865,448.1139
227.6686,445.2506
228.1507,442.7283
228.6328,442.0822
229.1149,444.3174
229.597,446.1001
230.0792,447.3509
230.5613,448.0077
231.0434,447.5977
231.5255,445.2567
232.0076,443.1422
232.4897,442.5423
232.9719,444.2855
233.454,445.6699
233.9361,446.384
234.4182,446.6939
234.9003,447.5605
235.3824,449.2537
235.8646,451.118
236.3467,452.7586
236.8288,453.7443
237.3109,455.5346
237.793,458.7044
238.2751,462.6169
238.7573,465.1446
239.2394,465.382
239.7215,465.5211
240.2036,466.5135
240.6857,468.5116
241.1678,471.012
241.65,474.066
242.1321,477.5842
242.6142,481.4059
243.0963,485.4411
243.5784,489.8989
244.0605,495.0298
244.5427,501.689
245.0248,506.801
245.5069,509.5394
245.989,511.0814
246.4711,514.1387
246.9532,520.0319
247.4354,525.3264
247.9175,528.6307
248.3996,529.515
248.8817,529.8751
249.3638,529.5402
249.8459,528.7922
250.3281,528.2396
250.8102,528.3914
251.2923,527.8578
251.7744,526.0142
252.2565,522.5206
252.7386,519.1225
253.2208,515.2832
253.7029,511.9389
254.185,510.7326
254.6671,512.8056
255.1492,514.7672
255.6313,515.3925
256.1135,514.3481
256.5956,514.1672
257.0777,515.0474
257.5598,516.58
258.0419,518.2384
258.524,519.9532
259.0062,521.906
259.4883,524.3044
259.9704,527.1697
260.4525,529.5681
260.9346,531.6669
261.4167,533.0635
261.8989,533.1911
262.381,531.7537
262.8631,529.8406
263.3452,527.6394
263.8273,525.1299
264.3094,522.5316
264.7916,519.5255
265.2737,516.8925
265.7558,515.381
266.2379,515.171
266.72,515.6348
267.2021,517.0537
267.6843,519.2087
268.1664,519.7069
268.6485,517.7899
269.1306,515.7807
269.6127,515.7031
270.0948,517.8547
270.577,520.6475
271.0591,524.182
271.5412,528.1041
272.0233,530.8171
272.5054,532.1652
272.9875,532.5701
273.4697,532.1552
273.9518,530.7959
274.4339,529.4314
274.916,528.3021
275.3981,527.1716
275.8802,525.2162
276.3624,522.3543
276.8445,519.1149
277.3266,515.5654
277.8087,511.6316
278.2908,508.6758
278.7729,507.1012
279.2551,506.229
279.7372,504.3614
280.2193,501.2892
280.7014,498.5667
281.1835,497.2548
281.6656,497.3278
282.1478,496.9148
282.6299,495.8229
283.112,494.4605
283.5941,493.5498
284.0762,493.11
284.5583,492.6655
285.0405,491.8405
285.5226,490.7203
286.0047,490.2338
286.4868,490.5373
286.9689,490.9661
287.451,490.5219
287.9332,489.2449
288.4153,487.982
288.8974,487.0363
289.3795,486.3735
289.8616,485.8253
290.3438,485.3473
290.8259,485.2838
291.308,486.4258
291.7901,488.5135
292.2722,490.0442
292.7543,490.379
293.2365,489.8949
293.7186,489.3476
294.2007,488.7397
294.6828,488.195
295.1649,487.5622
295.647,487.0395
296.1292,487.3984
296.6113,489.3672
297.0934,491.726
297.5755,492.5117
298.0576,491.8087
298.5397,490.5145
299.0219,488.6323
299.504,486.6777
299.9861,485.9023
300.4682,486.851
300.9503,488.4331
301.4324,489.3571
301.9146,489.7708
302.3967,490.3226
302.8788,491.8791
303.3609,493.6779
303.843,494.4698
304.3251,493.9077
304.8073,493.011
305.2894,492.5717
305.7715,492.5131
306.2536,492.6406
306.7357,492.703
307.2178,492.9704
307.7,493.9343
308.1821,495.7193
308.6642,497.2532
309.1463,497.3283
309.6284,496.6909
310.1105,496.5094
310.5927,497.9325
311.0748,499.5113
311.5569,500.1379
312.039,499.7911
312.5211,499.3777
313.0032,499.1776
313.4854,499.2715
313.9675,499.7493
314.4496,501.4244
314.9317,502.7938
315.4138,502.9256
315.8959,502.0088
316.3781,501.1892
316.8602,500.7538
317.3423,500.7401
317.8244,501.2425
318.3065,502.9119
318.7886,504.2009
319.2708,504.2672
319.7529,503.5103
320.235,503.055
320.7171,503.4496
321.1992,504.0614
321.6813,504.5554
322.1635,504.7425
322.6456,505.1267
323.1277,506.3463
323.6098,507.732
324.0919,508.1683
324.574,505.8029
325.0562,503.9858
325.5383,504.0576
326.0204,506.7403
326.5025,508.5918
326.9846,508.539
327.4667,507.9044
327.9489,508.1014
328.431,510.4441
328.9131,512.1771
329.3952,512.7306
329.8773,512.0784
330.3594,511.5209
330.8416,510.8168
331.3237,510.42
331.8058,510.7256
332.2879,512.4778
332.77,513.6382
333.2521,513.7869
333.7343,513.1758
334.2164,513.0451
334.6985,513.5487
335.1806,514.2802
335.6627,515.0012
336.1448,515.5879
336.627,516.6071
337.1091,518.4239
337.5912,520.4017
338.0733,521.1212
338.5554,520.2369
339.0375,519.1938
339.5197,518.4528
340.0018,518.0091
340.4839,518.1757
340.966,519.0903
341.4481,520.3059
341.9302,521.3547
342.4124,522.2631
342.8945,522.6639
343.3766,522.0784
343.8587,520.9093
344.3408,521.351
344.8229,523.6379
345.3051,525.9074
345.7872,526.1344
346.2693,524.6471
346.7514,523.6945
347.2335,523.9424
347.7156,524.7089
348.1978,524.432
348.6799,523.2203
349.162,522.3882
349.6441,523.3241
350.1262,525.2695
350.6083,526.2467
351.0905,525.8068
351.5726,525.2093
352.0547,526.1311
352.5368,528.15
353.0189,529.9866
353.501,531.3289
353.9832,531.9761
354.4653,531.243
354.9474,529.0339
355.4295,527.1559
355.9116,527.1896
356.3937,528.4313
356.8759,529.8215
357.358,531.0955
357.8401,532.2936
358.3222,533.7097
358.8043,535.2203
359.2864,536.0027
359.7686,534.6851
360.2507,532.9424
360.7328,532.252
361.2149,533.3607
361.697,534.8301
362.1791,536.244
362.6613,537.5957
363.1434,538.8758
363.6255,540.5929
364.1076,541.8185
364.5897,541.9056
365.0718,540.3217
365.554,539.2
366.0361,539.1151
366.5182,539.6229
367.0003,540.1924
367.4824,541.0374
367.9645,541.6685
368.4467,541.8404
368.9288,541.5228
369.4109,541.5858
369.893,542.5875
370.3751,543.5579
370.8572,543.8234
371.3394,542.9056
371.8215,542.0602
372.3036,541.0632
372.7857,540.21
373.2678,540.7149
373.7499,543.4354
374.2321,545.9885
374.7142,547.1608
375.1963,546.6013
375.6784,546.1158
376.1605,545.6262
376.6426,545.306
377.1248,545.459
377.6069,546.1232
378.089,547.0301
378.5711,548.221
379.0532,549.6208
379.5353,550.6244
380.0175,551.2418
380.4996,551.4661
380.9817,550.8276
381.4638,549.5304
381.9459,549.3574
382.428,550.8972
382.9102,553.447
383.3923,556.2211
383.8744,559.1096
384.3565,560.7841
384.8386,559.4567
385.3207,556.4485
385.8029,554.4672
386.285,553.8118
386.7671,553.9055
387.2492,554.3691
387.7313,555.1317
388.2134,556.0258
388.6956,557.4792
389.1777,558.6979
389.6598,558.6616
390.1419,557.4449
390.624,556.4287
391.1061,556.765
391.5883,557.6129
392.0704,558.0496
392.5525,557.3102
393.0346,556.8395
393.5167,557.5547
393.9988,559.0879
394.481,560.4042
394.9631,561.2708
395.4452,561.7341
395.9273,561.6918
396.4094,560.8734
396.8915,560.3776
397.3737,560.5124
397.8558,561.0335
398.3379,561.64
398.82,562.7981
399.3021,563.4874
399.7842,563.0121
400.2664,561.3766
400.7485,561.2599
401.2306,563.8922
401.7127,566.8293
402.1948,568.5081
402.6769,568.413
403.1591,568.0887
403.6412,567.2979
404.1233,566.4705
404.6054,566.9065
405.0875,569.1648
405.5696,571.0309
406.0518,571.4867
406.5339,570.4961
407.016,569.3947
407.4981,567.9993
407.9802,567.0657
408.4623,567.9019
408.9445,570.4745
409.4266,572.4755
409.9087,573.2653
410.3908,573.1588
410.8729,572.5046
411.355,571.3392
411.8372,570.6708
412.3193,571.665
412.8014,573.6545
413.2835,574.9641
413.7656,575.2306
414.2477,575.3996
414.7299,576.8278
415.212,578.9656
415.6941,580.4646
416.1762,579.6758
416.6583,578.6238
417.1404,579.5006
417.6226,582.2576
418.1047,584.6152
418.5868,585.0477
419.0689,584.5439
419.551,584.0439
420.0331,583.8121
420.5153,583.5948
420.9974,583.0695
421.4795,582.4758
421.9616,582.4444
422.4437,584.2728
422.9258,585.7448
423.408,585.516
423.8901,582.5618
424.3722,581.3883
424.8543,584.2154
425.3364,588.0986
425.8185,590.1187
426.3007,588.7844
426.7828,587.8158
427.2649,588.0179
427.747,589.1162
428.2291,589.1307
428.7112,587.2381
429.1934,585.6862
429.6755,586.025
430.1576,588.8618
430.6397,590.2445
431.1218,589.5426
431.6039,588.1959
432.0861,588.8196
432.5682,591.5851
433.0503,593.735
433.5324,594.3304
434.0145,593.5986
434.4966,591.834
434.9788,588.9901
435.4609,586.6979
435.943,586.6046
436.4251,588.1525
436.9072,589.9412
437.3893,591.9987
437.8715,593.5408
438.3536,593.0468
438.8357,591.2126
439.3178,589.9792
439.7999,590.8145
440.282,592.4005
440.7642,593.5431
441.2463,594.1764
441.7284,594.8183
442.2105,596.0692
442.6926,597.3151
443.1747,597.9242
443.6569,596.4452
444.139,595.8391
444.6211,597.9857
445.1032,601.8307
445.5853,604.2562
446.0674,603.4619
446.5496,602.2668
447.0317,601.7396
447.5138,602.1915
447.9959,602.4319
448.478,601.9557
448.9601,601.6454
449.4423,602.5667
449.9244,605.929
450.4065,607.9269
450.8886,607.4788
451.3707,605.2758
451.8528,604.3487
452.335,605.0599
452.8171,605.9234
453.2992,606.0563
453.7813,605.4365
454.2634,605.025
454.7455,604.7623
455.2277,604.9077
455.7098,606.1171
456.1919,608.1928
456.674,609.886
457.1561,610.6076
457.6382,610.8253
458.1204,611.499
458.6025,612.5203
459.0846,613.0413
459.5667,611.767
460.0488,609.9548
460.5309,609.3487
461.0131,610.3807
461.4952,611.7715
461.9773,612.9218
462.4594,613.787
462.9415,614.3133
463.4236,613.5487
463.9058,613.2971
464.3879,614.7566
464.87,617.7089
465.3521,620.159
465.8342,621.5114
466.3163,622.3218
466.7985,622.9081
467.2806,623.4382
467.7627,623.4412
468.2448,622.2585
468.7269,620.8251
469.209,620.5802
469.6912,622.6047
470.1733,623.7867
470.6554,623.0264
471.1375,620.6228
471.6196,619.5637
472.1017,620.1232
472.5839,621.2525
473.066,622.4698
473.5481,623.7751
474.0302,624.4819
474.5123,624.4373
474.9944,624.0769
475.4766,624.1429
475.9587,624.5402
476.4408,624.5951
476.9229,623.6544
477.405,622.4577
477.8871,622.3132
478.3693,623.1448
478.8514,624.2189
479.3335,625.3287
479.8156,626.2627
480.2977,626.6168
480.7798,626.0802
481.262,625.7791
481.7441,626.694
482.2262,628.1765
482.7083,629.2718
483.1904,629.1503
483.6725,629.0687
484.1547,629.5443
484.6368,630.5372
485.1189,631.437
485.601,632.1773
486.0831,632.7801
486.5652,633.2422
487.0474,633.4854
487.5295,633.7687
488.0116,634.2021
488.4937,634.5901
488.9758,634.5423
489.4579,633.7552
489.9401,633.5186
490.4222,634.3949
490.9043,636.0281
491.3864,636.5684
491.8685,635.8303
492.3506,635.2965
492.8328,636.3676
493.3149,638.6049
493.797,639.926
494.2791,640.0809
494.7612,639.8303
495.2433,640.1714
495.7255,640.807
496.2076,640.9584
496.6897,640.0128
497.1718,638.7966
497.6539,637.9457
498.136,637.4706
498.6182,637.3922
499.1003,637.8447
499.5824,638.624
500.0645,639.6532
500.5466,641.0156
501.0287,642.2383
501.5109,642.9916
501.993,643.6204
502.4751,644.4606
502.9572,646.5272
503.4393,647.5999
503.9214,646.7311
504.4036,644.6447
504.8857,643.9669
505.3678,645.6043
505.8499,647.0671
506.332,647.1776
506.8141,645.8
507.2963,645.119
507.7784,645.1605
508.2605,645.8303
508.7426,647.4139
509.2247,649.81
509.7068,651.4462
510.189,651.9503
510.6711,651.7131
511.1532,650.9646
511.6353,649.884
512.1174,649.3565
512.5995,650.4338
513.0817,651.9846
513.5638,652.5059
514.0459,652.0136
514.528,651.5939
515.0101,652.1417
515.4922,652.9843
515.9744,653.4559
516.4565,653.1762
516.9386,653.0187
517.4207,653.3784
517.9028,654.0269
518.3849,654.5859
518.8671,654.9931
519.3492,655.3026
519.8313,655.3744
520.3134,655.252
520.7955,655.6768
521.2776,656.9559
521.7598,658.3201
522.2419,659.4309
522.724,660.376
523.2061,660.4803
523.6882,659.4716
524.1703,658.1672
524.6525,657.6546
525.1346,657.8928
525.6167,658.3141
526.0988,658.95
526.5809,659.4754
527.063,658.9266
527.5452,657.5446
528.0273,656.6651
528.5094,657.1765
528.9915,658.5684
529.4736,660.7819
529.9557,663.8774
530.4379,665.8598
530.92,664.1321
531.4021,661.386
531.8842,660.3726
532.3663,663.7294
532.8484,666.0126
533.3306,664.8717
533.8127,661.7975
534.2948,659.9724
534.7769,660.6326
535.259,661.4007
535.7411,661.6321
536.2233,661.3636
536.7054,661.8856
537.1875,663.5234
537.6696,665.3401
538.1517,666.8012
538.6339,667.8931
539.116,668.699
539.5981,669.1542
540.0802,669.5223
540.5623,670.0878
541.0444,670.8599
541.5266,671.9822
542.0087,673.9121
542.4908,675.7244
542.9729,675.7111
543.455,674.2702
543.9371,673.0089
544.4193,672.6278
544.9014,672.9329
545.3835,674.1472
545.8656,676.3593
546.3477,677.8094
546.8298,677.0797
547.312,675.678
547.7941,674.8536
548.2762,675.2781
548.7583,675.6218
549.2404,675.5873
549.7225,675.4659
550.2047,675.7995
550.6868,676.9066
551.1689,677.8661
551.651,678.4938
552.1331,678.7927
552.6152,678.4098
553.0974,677.0518
553.5795,676.5099
554.0616,679.0081
554.5437,683.735
555.0258,685.4804
555.5079,683.6625
555.9901,681.1443
556.4722,681.0019
556.9543,682.3679
557.4364,683.428
557.9185,683.5432
558.4006,683.3754
558.8828,683.1544
559.3649,683.0413
559.847,683.4101
560.3291,685.2184
560.8112,686.7784
561.2933,686.9922
561.7755,685.7993
562.2576,685.3821
562.7397,686.8874
563.2218,688.5389
563.7039,689.497
564.186,689.5961
564.6682,689.3484
565.1503,688.4496
565.6324,687.6019
566.1145,687.8975
566.5966,689.5043
567.0787,690.8223
567.5609,691.5255
568.043,691.7594
568.5251,691.6004
569.0072,691.1244
569.4893,690.9015
569.9714,691.6369
570.4536,692.6288
570.9357,692.4122
571.4178,691.0941
571.8999,690.6765
572.382,693.7909
572.8641,697.6223
573.3463,699.6062
573.8284,698.8773
574.3105,697.434
574.7926,694.806
575.2747,692.1683
575.7568,691.0293
576.239,692.5589
576.7211,694.1826
577.2032,695.7976
577.6853,697.2908
578.1674,698.2043
578.6495,698.4563
579.1317,698.3653
579.6138,697.945
580.0959,697.2585
580.578,696.8475
581.0601,696.7322
581.5422,696.6749
582.0244,696.3092
582.5065,695.8638
582.9886,695.9755
583.4707,696.8008
583.9528,697.8004
584.4349,698.3741
584.9171,698.8398
585.3992,699.6771
585.8813,701.7207
586.3634,703.4418
586.8455,704.0997
587.3276,703.9333
587.8098,703.5658
588.2919,702.2615
588.774,701.6525
589.2561,702.5162
589.7382,704.8877
590.2203,706.4045
590.7025,706.8141
591.1846,706.7927
591.6667,706.7394
592.1488,706.662
592.6309,706.3466
593.113,705.6699
593.5952,705.2031
594.0773,706.0048
594.5594,707.6998
595.0415,708.8057
595.5236,708.9283
596.0057,708.392
596.4879,706.8611
596.97,704.9387
597.4521,704.057
597.9342,705.5532
598.4163,707.6818
598.8984,709.9644
599.3806,712.2496
599.8627,713.42
600.3448,712.183
600.8269,710.6404
601.309,709.7863
601.7911,709.8199
602.2733,709.7369
602.7554,709.4228
603.2375,709.1491
603.7196,709.1342
604.2017,709.3727
604.6838,710.0279
605.166,711.2555
605.6481,712.6106
606.1302,713.241
606.6123,713.3088
607.0944,713.5533
607.5765,714.2484
608.0587,715.2545
608.5408,717.2371
609.0229,719.5886
609.505,720.2123
609.9871,714.9014
610.4692,710.02
610.9514,710.1944
611.4335,716.0205
611.9156,720.7027
612.3977,722.7819
612.8798,723.346
613.3619,722.9472
613.8441,721.1036
614.3262,719.3013
614.8083,717.1031
615.2904,715.5237
615.7725,716.4329
616.2546,720.0479
616.7368,722.274
617.2189,721.8534
617.701,720.5458
618.1831,722.1723
618.6652,725.9077
619.1473,728.4246
619.6295,726.8184
620.1116,724.0639
620.5937,722.9628
621.0758,723.3541
621.5579,724.3943
622.04,726.7386
622.5222,728.7469
623.0043,729.243
623.4864,727.7803
623.9685,726.7629
624.4506,726.2068
624.9327,726.3434
625.4149,727.4901
625.897,730.166
626.3791,732.3351
626.8612,734.0915
627.3433,735.0518
627.8254,734.0399
628.3076,731.1956
628.7897,729.6801
629.2718,730.7087
629.7539,732.7466
630.236,733.5691
630.7181,733.3729
631.2003,732.755
631.6824,731.3557
632.1645,730.1752
632.6466,730.2673
633.1287,731.4342
633.6108,732.312
634.093,731.7307
634.5751,731.3378
635.0572,732.1893
635.5393,734.7278
636.0214,736.3732
636.5035,736.8226
636.9857,736.7402
637.4678,736.3818
637.9499,735.566
638.432,736.0033
638.9141,738.1566
639.3962,740.5368
639.8784,740.7549
640.3605,739.3456
640.8426,738.7502
641.3247,740.079
641.8068,741.6973
642.2889,741.5184
642.7711,740.2773
643.2532,739.6357
643.7353,741.3834
644.2174,742.9049
644.6995,742.587
645.1816,740.7325
645.6638,739.5617
646.1459,739.5363
646.628,740.1424
647.1101,741.4433
647.5922,743.4989
648.0743,744.9037
648.5565,745.5407
649.0386,745.7726
649.5207,745.6266
650.0028,745.1896
650.4849,745.264
650.967,745.8938
651.4492,747.0665
651.9313,749.1054
652.4134,751.6168
652.8955,754.0589
653.3776,757.0384
653.8597,758.3517
654.3419,754.703
654.824,748.9686
655.3061,745.614
655.7882,748.3184
656.2703,750.6946
656.7524,751.0243
657.2346,750.0196
657.7167,749.8059
658.1988,750.7855
658.6809,751.6788
659.163,752.1141
659.6451,752.1061
660.1273,751.5087
660.6094,750.2599
661.0915,749.3799
661.5736,749.6758
662.0557,750.7575
662.5378,752.0012
663.02,753.3632
663.5021,754.5626
663.9842,755.4364
664.4663,756.0295
664.9484,756.4072
665.4305,756.6644
665.9127,756.4777
666.3948,754.2823
666.8769,752.4374
667.359,753.5179
667.8411,759.976
668.3232,764.1627
668.8054,764.9899
669.2875,763.8493
669.7696,762.7916
670.2517,761.8043
670.7338,761.547
671.2159,762.4482
671.6981,763.8642
672.1802,764.673
672.6623,765.0153
673.1444,765.4324
673.6265,766.712
674.1086,767.7542
674.5908,767.4736
675.0729,766.0768
675.555,764.9792
676.0371,765.066
676.5192,765.1556
677.0013,764.4196
677.4835,762.6459
677.9656,762.5215
678.4477,764.846
678.9298,767.377
679.4119,768.3115
679.894,767.64
680.3762,767.8949
680.8583,769.2386
681.3404,770.9625
681.8225,772.6547
682.3046,774.1377
682.7867,774.9567
683.2689,774.7914
683.751,774.7048
684.2331,776.1342
684.7152,777.8654
685.1973,778.3182
685.6794,774.2482
686.1616,772.2739
686.6437,775.067
687.1258,780.3092
687.6079,783.7885
688.09,784.5563
688.5721,785.9761
689.0543,789.0447
689.5364,793.1282
690.0185,796.4525
690.5006,799.0146
690.9827,801.3499
691.4648,803.7204
691.947,806.0442
692.4291,808.1454
692.9112,810.0878
693.3933,812.2248
693.8754,813.7976
694.3575,816.4238
694.8397,821.3514
695.3218,828.823
695.8039,836.9512
696.286,845.5987
696.7681,854.7674
697.2502,864.4206
697.7324,874.2844
698.2145,885.682
698.6966,898.4014
699.1787,913.28
699.6608,928.6451
700.1429,946.1249
700.6251,978.3449
701.1072,1029.934
701.5893,1078.985
702.0714,1112.723
702.5535,1127.161
703.0356,1114.083
703.5178,1054.884
703.9999,996.5728
704.482,952.6203
704.9641,921.9773
705.4462,903.1693
705.9283,904.429
706.4105,903.3972
706.8926,897.5116
707.3747,887.6044
707.8568,874.5873
708.3389,858.0554
708.821,843.1342
709.3032,831.5397
709.7853,822.6194
710.2674,815.3192
710.7495,809.6241
711.2316,805.7445
711.7137,804.3375
712.1959,804.3155
712.678,805.2921
713.1601,807.1182
713.6422,808.9132
714.1243,810.6915
714.6064,812.1266
715.0886,812.7136
715.5707,812.3899
716.0528,814.1422
716.5349,819.0155
717.017,823.3425
717.4991,824.9538
717.9813,823.9717
718.4634,820.7509
718.9455,815.1892
719.4276,809.9778
719.9097,808.0222
720.3918,807.5566
720.874,806.0287
721.3561,802.7577
721.8382,800.2678
722.3203,800.0582
722.8024,800.9552
723.2845,801.9588
723.7667,803.3762
724.2488,804.0854
724.7309,803.6119
725.213,802.9327
725.6951,803.335
726.1772,804.9106
726.6594,806.1042
727.1415,806.6104
727.6236,806.8236
728.1057,807.0186
728.5878,807.357
729.0699,808.3624
729.5521,810.9335
730.0342,813.0616
730.5163,813.3626
730.9984,812.2949
731.4805,810.6721
731.9626,806.9402
732.4448,804.8434
732.9269,805.5408
733.409,808.147
733.8911,810.3688
734.3732,812.2234
734.8553,813.554
735.3375,814.3164
735.8196,814.5148
736.3017,813.8309
736.7838,812.4371
737.2659,811.3859
737.748,811.1791
738.2302,811.631
738.7123,813.2653
739.1944,815.6413
739.6765,816.6742
740.1586,813.8116
740.6407,811.1272
741.1229,810.7082
741.605,812.4329
742.0871,813.5344
742.5692,813.813
743.0513,813.9637
743.5334,814.4037
744.0156,815.0705
744.4977,815.2287
744.9798,814.8809
745.4619,814.8443
745.944,816.2887
746.4261,818.1284
746.9083,818.7858
747.3904,818.0991
747.8725,817.7458
748.3546,818.8747
748.8367,820.3287
749.3188,821.2723
749.801,821.3672
750.2831,821.9457
750.7652,823.2884
751.2473,824.6645
751.7294,825.8455
752.2115,826.8056
752.6937,825.5681
753.1758,821.6591
753.6579,817.9867
754.14,818.0809
754.6221,820.2601
755.1042,821.8929
755.5864,822.5059
756.0685,822.4066
756.5506,820.526
757.0327,818.6419
757.5148,818.6269
757.9969,823.7053
758.4791,825.758
758.9612,822.9376
759.4433,819.129
759.9254,819.7104
760.4075,824.941
760.8896,828.4052
761.3718,828.9466
761.8539,827.9894
762.336,826.7244
762.8181,825.4516
763.3002,824.8842
763.7823,825.6857
764.2645,826.3947
764.7466,825.6283
765.2287,824.4396
765.7108,824.4236
766.1929,827.5231
766.675,829.3665
767.1572,828.9883
767.6393,827.6339
768.1214,827.6818
768.6035,829.2291
769.0856,830.952
769.5677,832.7169
770.0499,834.1312
770.532,834.3776
771.0141,833.7687
771.4962,833.1145
771.9783,832.7725
772.4604,832.4471
772.9426,831.8326
773.4247,831.1281
773.9068,830.8282
774.3889,831.4475
774.871,831.7971
775.3531,831.5491
775.8353,830.9639
776.3174,830.7664
776.7995,830.972
777.2816,831.4594
777.7637,832.4737
778.2458,833.4408
778.728,833.012
779.2101,831.6518
779.6922,830.8417
780.1743,832.0214
780.6564,833.2203
781.1385,833.4813
781.6207,832.9124
782.1028,831.992
782.5849,829.8353
783.067,828.8344
783.5491,830.0087
784.0313,832.7047
784.5134,834.4202
784.9955,835.1523
785.4776,835.3775
785.9597,835.2404
786.4418,834.7842
786.924,833.584
787.4061,832.0068
787.8882,831.4383
788.3703,833.5213
788.8524,835.8925
789.3345,837.822
789.8167,839.1447
790.2988,838.9281
790.7809,835.8604
791.263,833.7244
791.7451,834.0675
792.2272,836.306
792.7094,838.198
793.1915,839.7109
793.6736,840.2958
794.1557,838.6952
794.6378,836.5563
795.1199,836.0505
795.6021,836.9374
796.0842,838.0244
796.5663,839.1116
797.0484,839.9767
797.5305,840.3127
798.0126,840.2205
798.4948,840.6467
798.9769,841.869
799.459,842.9216
799.9411,843.3244
800.4232,843.2643
800.9053,843.5443
801.3875,844.1052
801.8696,844.3362
802.3517,843.3541
802.8338,842.2366
803.3159,842.126
803.798,842.8965
804.2802,843.6819
804.7623,844.1342
805.2444,844.6238
805.7265,845.4177
806.2086,846.4142
806.6907,846.4847
807.1729,845.1913
807.655,844.8734
808.1371,847.5368
808.6192,851.5968
809.1013,852.4116
809.5834,850.4882
810.0656,848.7117
810.5477,849.7291
811.0298,850.6985
811.5119,848.9755
811.994,845.0167
812.4761,842.7733
812.9583,844.3458
813.4404,845.804
813.9225,845.7913
814.4046,844.6666
814.8867,844.7282
815.3688,846.0383
815.851,847.2827
816.3331,847.5004
816.8152,847.382
817.2973,848.351
817.7794,850.0756
818.2615,851.2476
818.7437,850.0064
819.2258,849.2023
819.7079,850.7107
820.19,854.1267
820.6721,856.2026
821.1542,856.7117
821.6364,856.3327
822.1185,854.9537
822.6006,853.0187
823.0827,851.9855
823.5648,851.7791
824.0469,851.6734
824.5291,851.353
825.0112,850.934
825.4933,850.4125
825.9754,849.8806
826.4575,849.5979
826.9396,849.5841
827.4218,849.9573
827.9039,851.0931
828.386,852.5847
828.8681,852.804
829.3502,851.4495
829.8323,850.6209
830.3145,851.1639
830.7966,852.4616
831.2787,853.7614
831.7608,854.8679
832.2429,855.1467
832.725,853.4743
833.2072,851.7363
833.6893,850.6448
834.1714,850.254
834.6535,850.8007
835.1356,853.0892
835.6177,854.7448
836.0999,855.0773
836.582,854.8253
837.0641,856.0906
837.5462,858.6552
838.0283,859.8718
838.5104,858.2844
838.9926,856.1237
839.4747,856.1454
839.9568,857.2792
840.4389,857.6602
840.921,854.2678
841.4031,853.0057
841.8853,857.6249
842.3674,863.8363
842.8495,865.0859
843.3316,860.0755
843.8137,856.5875
844.2958,856.0031
844.778,856.9695
845.2601,857.6913
845.7422,858.38
846.2243,859.7726
846.7064,862.705
847.1885,864.7435
847.6707,863.4888
848.1528,861.0377
848.6349,859.8954
849.117,861.459
849.5991,862.2064
850.0812,861.8129
850.5634,861.0553
851.0455,860.5011
851.5276,860.2606
852.0097,861.2352
852.4918,863.6302
852.9739,866.6974
853.4561,871.2454
853.9382,875.3062
854.4203,876.4188
854.9024,873.3874
855.3845,869.9229
855.8666,865.2764
856.3488,861.7035
856.8309,861.1033
857.313,863.9421
857.7951,865.9875
858.2772,867.172
858.7593,867.7213
859.2415,867.5897
859.7236,867.0315
860.2057,866.3019
860.6878,865.4357
861.1699,865.0353
861.652,865.3745
862.1342,866.2881
862.6163,868.1199
863.0984,870.9349
863.5805,872.12
864.0626,871.1461
864.5447,870.1339
865.0269,870.5606
865.509,871.8788
865.9911,872.2528
866.4732,871.7302
866.9553,870.5576
867.4374,867.7688
867.9196,865.3474
868.4017,864.881
868.8838,866.1832
869.3659,867.7324
869.848,870.2582
870.3301,871.3997
870.8123,869.8026
871.2944,866.6236
871.7765,866.3568
872.2586,868.6846
872.7407,870.1804
873.2228,868.5556
873.705,866.2822
874.1871,865.9495
874.6692,866.9176
875.1513,867.7937
875.6334,868.1916
876.1155,868.4185
876.5977,868.6498
877.0798,868.7159
877.5619,868.0847
878.044,866.6656
878.5261,865.9775
879.0082,866.4129
879.4904,867.4453
879.9725,868.6599
880.4546,869.9118
880.9367,870.9789
881.4188,871.9218
881.9009,872.3914
882.3831,871.9893
882.8652,871.1971
883.3473,870.4385
883.8294,869.5431
884.3115,869.4514
884.7936,870.3897
885.2758,871.4425
885.7579,871.7844
886.24,871.5203
886.7221,870.5594
887.2042,868.8301
887.6863,867.8324
888.1685,869.1234
888.6506,870.9084
889.1327,871.6852
889.6148,871.0987
890.0969,872.1232
890.579,875.7266
891.0612,878.3929
891.5433,876.8885
892.0254,872.7947
892.5075,872.4877
892.9896,875.552
893.4717,878.6844
893.9539,880.4461
894.436,881.092
894.9181,880.0912
895.4002,877.863
895.8823,877.0408
896.3644,878.5521
896.8466,879.9979
897.3287,880.8452
897.8108,881.1599
898.2929,881.1766
898.775,880.8584
899.2571,879.8459
899.7393,877.4803
900.2214,875.1785
900.7035,873.8694
901.1856,873.5109
901.6677,874.059
902.1498,877.1016
902.632,878.6718
903.1141,877.8058
903.5962,876.2346
904.0783,876.4633
904.5604,878.3369
905.0425,879.8401
905.5247,880.6638
906.0068,881.1974
906.4889,881.7677
906.971,882.2846
907.4531,882.7159
907.9352,883.1915
908.4174,883.0625
908.8995,881.6309
909.3816,880.3403
909.8637,880.2216
910.3458,881.2692
910.8279,881.7988
911.3101,881.8031
911.7922,881.504
912.2743,880.8975
912.7564,880.1727
913.2385,879.369
913.7206,878.5615
914.2028,878.2312
914.6849,878.9144
915.167,879.6941
915.6491,880.588
916.1312,881.3266
916.6133,880.6149
917.0955,878.4319
917.5776,876.2167
918.0597,874.0229
918.5418,872.768
919.0239,874.2847
919.506,877.4785
919.9882,880.1967
920.4703,882.1163
920.9524,882.9532
921.4345,882.0127
921.9166,880.5126
922.3987,880.0466
922.8809,880.6903
923.363,880.7441
923.8451,879.8631
924.3272,879.222
924.8093,880.9368
925.2914,883.2499
925.7736,883.3701
926.2557,880.3755
926.7378,878.6501
927.2199,880.9298
927.702,883.4653
928.1841,884.4044
928.6663,883.7504
929.1484,882.7533
929.6305,881.3616
930.1126,880.6777
930.5947,882.083
931.0768,884.1459
931.559,885.0748
932.0411,885.0233
932.5232,884.7214
933.0053,884.0994
933.4874,883.6336
933.9695,883.4384
934.4517,883.4681
934.9338,883.5385
935.4159,883.6439
935.898,884.3043
936.3801,885.8239
936.8622,887.5068
937.3444,888.9781
937.8265,889.8915
938.3086,889.6304
938.7907,887.1255
939.2728,885.218
939.7549,884.2227
940.2371,884.1133
940.7192,885.3981
941.2013,888.1573
941.6834,888.5677
942.1655,886.3801
942.6476,884.2473
943.1298,884.8355
943.6119,886.3802
944.094,886.8917
944.5761,886.287
945.0582,886.0618
945.5403,887.2655
946.0225,888.0175
946.5046,887.5149
946.9867,886.1621
947.4688,885.5289
947.9509,885.611
948.433,886.1799
948.9152,887.2436
949.3973,888.6111
949.8794,890.3818
950.3615,892.2601
950.8436,893.7281
951.3257,895.1672
951.8079,895.2513
952.29,893.2585
952.7721,890.7864
953.2542,889.6696
953.7363,889.82
954.2184,890.9174
954.7006,893.0517
955.1827,894.592
955.6648,893.5068
956.1469,891.7598
956.629,891.2728
957.1111,892.4679
957.5933,892.5792
958.0754,890.5367
958.5575,889.4387
959.0396,891.4868
959.5217,895.3414
960.0038,896.0066
960.486,894.011
960.9681,892.1005
961.4502,892.1336
961.9323,892.284
962.4144,890.9346
962.8965,889.0284
963.3787,888.7988
963.8608,891.2385
964.3429,892.8851
964.825,893.2679
965.3071,892.9019
965.7892,891.7112
966.2714,890.4299
966.7535,891.246
967.2356,894.8195
967.7177,898.2304
968.1998,900.3768
968.6819,901.3223
969.1641,900.8557
969.6462,898.8978
970.1283,897.1553
970.6104,895.5385
971.0925,894.4922
971.5746,894.1086
972.0568,894.5416
972.5389,896.9542
973.021,900.5494
973.5031,902.6272
973.9852,900.2097
974.4673,898.3318
974.9495,898.675
975.4316,900.2814
975.9137,902.0233
976.3958,904.0236
976.8779,903.5926
977.36,899.7282
977.8422,895.8103
978.3243,895.7777
978.8064,897.6738
979.2885,899.1226
979.7706,899.6551
980.2527,900.08
980.7349,900.2472
981.217,900.7331
981.6991,902.0993
982.1812,904.1127
982.6633,904.91
983.1454,904.5469
983.6276,903.7571
984.1097,902.374
984.5918,901.2565
985.0739,901.0449
985.556,901.6066
986.0381,902.6706
986.5203,904.4982
987.0024,906.148
987.4845,907.5255
987.9666,908.6561
988.4487,909.8591
988.9308,910.8395
989.413,910.4688
989.8951,908.3635
990.3772,906.5303
990.8593,906.7236
991.3414,907.1684
991.8235,906.1432
992.3057,903.4657
992.7878,903.369
993.2699,906.2569
993.752,909.1921
994.2341,910.6784
994.7162,911.1586
995.1984,911.2109
995.6805,910.8752
996.1626,910.2654
996.6447,908.8184
997.1268,907.894
997.6089,907.9942
998.0911,908.5491
998.5732,908.8244
999.0553,908.8215
999.5374,908.4582
1000.02,907.6353
1000.502,907.2919
1000.984,909.0958
1001.466,911.2717
1001.948,912.0867
1002.43,911.2491
1002.912,909.8121
1003.394,907.256
1003.876,905.3542
1004.359,904.8199
1004.841,905.4818
1005.323,907.3857
1005.805,910.1655
1006.287,912.2396
1006.769,912.7514
1007.251,912.6518
1007.733,911.9153
1008.216,911.1056
1008.698,911.03
1009.18,911.9211
1009.662,912.6215
1010.144,913.0104
1010.626,913.4846
1011.108,915.0124
1011.59,916.5735
1012.072,915.9231
1012.555,913.1185
1013.037,911.9088
1013.519,916.3873
1014.001,919.3041
1014.483,917.5433
1014.965,912.8316
1015.447,911.4459
1015.929,913.0206
1016.411,913.5777
1016.894,911.2259
1017.376,908.8525
1017.858,909.2452
1018.34,910.9983
1018.822,912.3757
1019.304,912.9662
1019.786,913.6404
1020.268,914.3562
1020.751,915.2961
1021.233,917.2283
1021.715,919.3627
1022.197,918.9454
1022.679,916.4326
1023.161,914.7223
1023.643,915.7327
1024.125,917.3129
1024.607,919.1989
1025.09,920.8336
1025.572,920.733
1026.054,918.7253
1026.536,917.341
1027.018,917.0253
1027.5,917.4399
1027.982,918.9061
1028.464,920.5212
1028.947,920.9883
1029.429,919.6908
1029.911,919.7446
1030.393,922.5842
1030.875,924.4371
1031.357,922.9478
1031.839,919.2175
1032.321,916.2955
1032.803,914.4003
1033.286,914.3192
1033.768,918.8882
1034.25,922.5855
1034.732,922.0322
1035.214,919.5925
1035.696,918.6533
1036.178,919.3986
1036.66,920.656
1037.143,922.4244
1037.625,924.1876
1038.107,926.0441
1038.589,927.3005
1039.071,926.2315
1039.553,922.993
1040.035,921.975
1040.517,926.1487
1041.0,929.5674
1041.482,930.8809
1041.964,930.1289
1042.446,925.5682
1042.928,918.6385
1043.41,915.8127
1043.892,920.3209
1044.374,925.2632
1044.856,926.0032
1045.339,925.5659
1045.821,927.0974
1046.303,931.3022
1046.785,931.9551
1047.267,928.6609
1047.749,925.3439
1048.231,924.7655
1048.713,925.5748
1049.195,926.3487
1049.677,927.072
1050.16,927.7353
1050.642,927.1718
1051.124,928.4996
1051.606,933.1933
1052.088,938.1765
1052.57,938.3571
1053.052,935.1651
1053.534,934.7042
1054.017,937.7891
1054.499,940.0323
1054.981,937.608
1055.463,934.4582
1055.945,932.968
1056.427,932.9504
1056.909,933.1177
1057.391,933.3707
1057.874,935.2656
1058.356,940.046
1058.838,945.2047
1059.32,947.8727
1059.802,948.8533
1060.284,949.358
1060.766,949.6078
1061.248,949.4171
1061.73,948.8434
1062.213,947.7428
1062.695,945.626
1063.177,942.9171
1063.659,941.141
1064.141,940.1747
1064.623,939.4968
1065.105,938.8632
1065.587,938.4188
1066.07,938.0307
1066.552,937.9431
1067.034,938.577
1067.516,939.931
1067.998,941.633
1068.48,943.5927
1068.962,946.2075
1069.444,951.1485
1069.927,955.9521
1070.409,957.392
1070.891,955.3676
1071.373,956.8743
1071.855,962.2281
1072.337,970.4542
1072.819,980.6028
1073.301,994.6485
1073.783,1014.381
1074.266,1041.338
1074.748,1080.317
1075.23,1137.96
1075.712,1192.463
1076.194,1240.797
1076.676,1281.932
1077.158,1312.864
1077.64,1335.03
1078.122,1364.848
1078.604,1401.745
1079.087,1440.867
1079.569,1475.117
1080.051,1515.344
1080.533,1555.476
1081.015,1611.026
1081.497,1702.613
1081.979,1824.038
1082.461,2006.947
1082.944,2254.554
1083.426,2551.437
1083.908,2805.225
1084.39,3146.29
1084.872,3807.646
1085.354,4767.322
1085.836,5625.708
1086.318,6686.771
1086.801,6952.667
1087.283,5987.43
1087.765,4423.311
1088.247,3275.803
1088.729,2484.083
1089.211,1930.39
1089.693,1609.848
1090.175,1389.591
1090.657,1261.02
1091.14,1175.455
1091.622,1110.083
1092.104,1064.006
1092.586,1032.464
1093.068,1014.683
1093.55,1002.688
1094.032,994.7435
1094.514,988.3265
1094.997,982.5204
1095.479,976.7238
1095.961,969.5688
1096.443,959.1234
1096.925,954.6566
1097.407,957.0159
1097.889,959.9183
1098.371,957.5154
1098.854,953.4722
1099.336,952.9305
1099.818,954.9671
1100.3,955.5447
1100.782,952.3729
1101.264,950.1288
1101.746,949.5853
1102.228,949.7706
1102.71,949.7123
1103.193,949.3124
1103.675,947.7764
1104.157,945.0363
1104.639,943.8539
1105.121,947.93
1105.603,950.8519
1106.085,949.5124
1106.567,945.6655
1107.049,945.053
1107.531,947.2162
1108.014,948.4943
1108.496,947.5918
1108.978,946.7
1109.46,948.0558
1109.942,949.5585
1110.424,948.9951
1110.906,946.2059
1111.388,945.4333
1111.871,946.8435
1112.353,947.7878
1112.835,946.2975
1113.317,944.5244
1113.799,945.2695
1114.281,947.2265
1114.763,948.1842
1115.245,946.7879
1115.728,946.6976
1116.21,948.3871
1116.692,949.8724
1117.174,949.1374
1117.656,947.2549
1118.138,945.9857
1118.62,945.3161
1119.102,944.9631
1119.584,944.6346
1120.067,945.0169
1120.549,946.7122
1121.031,948.3382
1121.513,947.2877
1121.995,944.613
1122.477,944.3253
1122.959,946.7422
1123.441,948.9034
1123.924,949.1823
1124.406,948.8753
1124.888,948.2634
1125.37,947.6749
1125.852,948.3477
1126.334,950.1246
1126.816,951.0758
1127.298,950.745
1127.781,949.6559
1128.263,947.4018
1128.745,945.189
1129.227,944.0583
1129.709,943.9681
1130.191,944.0704
1130.673,944.3398
1131.155,945.3376
1131.637,947.903
1132.12,950.1808
1132.602,949.5684
1133.084,947.6938
1133.566,946.8681
1134.048,947.6093
1134.53,948.5891
1135.012,949.9475
1135.494,950.9459
1135.976,950.7049
1136.458,950.0825
1136.941,950.9857
1137.423,952.5914
1137.905,952.8896
1138.387,949.8273
1138.869,947.5979
1139.351,946.3055
1139.833,946.1124
1140.315,947.8735
1140.798,950.6584
1141.28,952.0545
1141.762,952.2134
1142.244,952.6777
1142.726,955.3568
1143.208,956.5754
1143.69,954.9449
1144.172,952.2834
1144.655,951.2996
1145.137,951.7088
1145.619,952.6002
1146.101,953.8785
1146.583,954.3512
1147.065,952.2331
1147.547,950.4444
1148.029,950.6117
1148.511,951.9426
1148.994,951.6907
1149.476,950.1861
1149.958,950.7929
1150.44,954.8093
1150.922,958.3495
1151.404,958.1758
1151.886,956.7542
1152.368,955.6509
1152.851,954.9449
1153.333,955.3691
1153.815,956.9177
1154.297,958.1362
1154.779,958.3847
1155.261,958.292
1155.743,958.2933
1156.225,958.3351
1156.708,958.4209
1157.19,958.6218
1157.672,958.1933
1158.154,957.0239
1158.636,956.2606
1159.118,956.8121
1159.6,957.8285
1160.082,958.5303
1160.564,958.9961
1161.047,959.3495
1161.529,959.6967
1162.011,959.7587
1162.493,959.4821
1162.975,959.1829
1163.457,959.2709
1163.939,959.3688
1164.421,958.5632
1164.903,957.3004
1165.385,956.9984
1165.868,959.1237
1166.35,959.7906
1166.832,958.1428
1167.314,956.5218
1167.796,957.9338
1168.278,960.7932
1168.76,962.3047
1169.242,962.5004
1169.725,962.6726
1170.207,963.3077
1170.689,963.8793
1171.171,964.4676
1171.653,964.6817
1172.135,963.4142
1172.617,961.4974
1173.099,960.9698
1173.582,962.0326
1174.064,962.9244
1174.546,962.3412
1175.028,962.4818
1175.51,964.3819
1175.992,966.7002
1176.474,966.113
1176.956,963.7342
1177.438,962.9973
1177.921,964.7411
1178.403,966.2893
1178.885,965.7214
1179.367,965.816
1179.849,968.2272
1180.331,971.7184
1180.813,972.0867
1181.295,970.0769
1181.778,968.4594
1182.26,968.0604
1182.742,967.9049
1183.224,967.5864
1183.706,967.3383
1184.188,967.1115
1184.67,967.0662
1185.152,968.8328
1185.635,971.8259
1186.117,972.9247
1186.599,969.6418
1187.081,966.9778
1187.563,968.1954
1188.045,970.326
1188.527,970.9092
1189.009,970.1749
1189.491,971.7748
1189.974,975.3053
1190.456,977.811
1190.938,977.709
1191.42,976.3942
1191.902,972.9448
1192.384,969.7936
1192.866,969.3751
1193.348,971.7413
1193.83,975.4182
1194.313,980.1286
1194.795,982.568
1195.277,978.4769
1195.759,974.1218
1196.241,973.1867
1196.723,973.8223
1197.205,973.8505
1197.687,973.2738
1198.169,971.8594
1198.652,969.6656
1199.134,968.1355
1199.616,968.6948
1200.098,969.7733
1200.58,970.7686
1201.062,971.5319
1201.544,971.5641
1202.026,970.8132
1202.509,971.9026
1202.991,975.0787
1203.473,977.6648
1203.955,976.5544
1204.437,975.368
1204.919,977.3239
1205.401,980.66
1205.883,981.1779
1206.365,978.7997
1206.848,977.0569
1207.33,976.4179
1207.812,976.2101
1208.294,976.2505
1208.776,976.2142
1209.258,975.1925
1209.74,974.0307
1210.222,976.1121
1210.705,981.5271
1211.187,982.6328
1211.669,977.6285
1212.151,972.6075
1212.633,973.0084
1213.115,974.7865
1213.597,974.8475
1214.079,973.7824
1214.562,974.1679
1215.044,975.9642
1215.526,977.1735
1216.008,977.2303
1216.49,977.2634
1216.972,978.618
1217.454,979.866
1217.936,979.4503
1218.418,977.9046
1218.901,978.4473
1219.383,980.9329
1219.865,982.1017
1220.347,980.6412
1220.829,979.1963
1221.311,980.7426
1221.793,982.1426
1222.275,980.4413
1222.757,976.337
1223.24,975.4421
1223.722,977.4886
1224.204,978.8427
1224.686,978.0433
1225.168,977.0637
1225.65,977.1277
1226.132,977.6847
1226.614,978.4935
1227.096,979.4349
1227.579,978.9838
1228.061,977.3702
1228.543,976.7064
1229.025,978.3323
1229.507,979.8022
1229.989,978.7927
1230.471,977.8728
1230.953,979.345
1231.436,982.8005
1231.918,984.463
1232.4,984.46
1232.882,983.5768
1233.364,981.2838
1233.846,979.8082
1234.328,981.4818
1234.81,983.2233
1235.292,982.3445
1235.775,979.3972
1236.257,979.1947
1236.739,981.233
1237.221,982.7737
1237.703,982.1707
1238.185,981.6157
1238.667,982.0899
1239.149,982.7499
1239.632,982.795
1240.114,982.4786
1240.596,983.7712
1241.078,986.2137
1241.56,987.9254
1242.042,987.9232
1242.524,987.1613
1243.006,985.3285
1243.489,983.5651
1243.971,982.3757
1244.453,982.017
1244.935,984.8961
1245.417,989.8216
1245.899,992.27
1246.381,987.6332
1246.863,984.3412
1247.345,983.7419
1247.828,984.4559
1248.31,985.8952
1248.792,987.5879
1249.274,988.0659
1249.756,987.6517
1250.238,987.4951
1250.72,988.3788
1251.202,988.9144
1251.684,988.761
1252.167,988.8005
1252.649,990.0729
1253.131,991.931
1253.613,993.4211
1254.095,994.399
1254.577,994.4662
1255.059,992.639
1255.541,991.5897
1256.023,991.6113
1256.506,991.8636
1256.988,991.678
1257.47,991.2363
1257.952,990.2823
1258.434,989.3167
1258.916,990.0504
1259.398,993.8189
1259.88,995.7264
1260.363,995.3282
1260.845,994.1412
1261.327,992.9853
1261.809,992.0797
1262.291,991.8215
1262.773,991.956
1263.255,991.7372
1263.737,990.9463
1264.219,990.8481
1264.702,991.5861
1265.184,992.0394
1265.666,990.6529
1266.148,989.3116
1266.63,989.6963
1267.112,991.1549
1267.594,992.2989
1268.076,993.1569
1268.559,993.3195
1269.041,992.7687
1269.523,992.2161
1270.005,992.3107
1270.487,992.3676
1270.969,991.6795
1271.451,990.8932
1271.933,991.2022
1272.416,992.4353
1272.898,991.9792
1273.38,989.8734
1273.862,988.6533
1274.344,990.4451
1274.826,992.6134
1275.308,994.5209
1275.79,996.0231
1276.272,996.8069
1276.755,997.0446
1277.237,997.8828
1277.719,999.0709
1278.201,998.5277
1278.683,991.9006
1279.165,988.6938
1279.647,991.7053
1280.129,996.3448
1280.611,996.9824
1281.094,995.681
1281.576,997.4296
1282.058,1001.635
1282.54,1004.089
1283.022,1002.91
1283.504,1001.164
1283.986,998.8259
1284.468,997.0511
1284.95,997.5691
1285.433,998.9366
1285.915,999.4044
1286.397,999.0277
1286.879,998.2157
1287.361,996.6404
1287.843,996.1408
1288.325,996.9003
1288.807,998.6432
1289.29,1002.631
1289.772,1006.124
1290.254,1006.486
1290.736,1004.473
1291.218,1001.981
1291.7,998.8465
1292.182,997.7416
1292.664,998.8262
1293.146,1000.053
1293.629,999.5185
1294.111,999.2263
1294.593,1000.719
1295.075,1002.844
1295.557,1004.391
1296.039,1005.344
1296.521,1005.357
1297.003,1004.499
1297.486,1003.639
1297.968,1003.627
1298.45,1003.297
1298.932,1002.212
1299.414,1001.053
1299.896,1000.643
1300.378,1000.762
1300.86,1000.812
1301.343,1000.84
1301.825,1001.082
