Raman Shift,Intensity
214.3785040343428,44.787
224.78145843945092,57.96
235.01908334044856,-76.402
245.41130867789616,703.426
255.63837774522108,-126.459
265.8602158678186,426.798
276.23642015571386,-100.113
286.44772684514464,-684.984
296.8132434111685,-160.708
307.0140349346475,2.635
317.209615658554,-108.017
327.399989574551,68.498
337.7442627077253,-226.572
347.9241537664129,305.608
358.09885002992814,-100.113
368.2683554736213,36.884
378.5914504125685,142.266
388.7505051753542,213.399
398.90438108190574,-163.342
409.0530820913264,-173.88
419.196612158652,-118.555
429.3349752349313,-44.787
439.626465572117,134.362
449.75442592354375,139.631
459.8772311743669,289.801
469.994885259468,666.542
480.1073921097559,194.957
490.2147556521086,-110.651
500.31697980943136,-334.588
510.41406850063504,-237.11
520.5060256406359,126.459
530.5928551403995,447.874
540.6745609068894,-144.9
550.7511468431039,295.07
560.8226168481124,-81.671
570.888974816975,194.957
580.9502246408374,39.518
590.8492821665859,-60.595
600.9004070215597,316.146
610.9464353206786,89.575
620.9873709393651,-10.538
631.0232177491416,39.518
641.0539796175653,366.203
650.9230482019848,158.073
660.9437310766662,155.439
670.9593405290361,653.369
680.9698804110958,-89.575
690.8190579752118,-121.189
700.8195493193562,-102.748
710.8149825658329,-358.299
720.805361551138,331.954
730.6347081696804,397.817
740.6150689503047,231.841
750.4345613154874,-740.309
760.404918953056,-495.296
770.3702413346182,234.475
780.174941402227,205.495
790.1302832356378,-410.99
799.925166080895,-292.435
809.8705423523497,184.419
819.6556227125038,147.535
829.5910483782136,15.807
839.3663409610526,331.954
849.2918309472952,79.037
859.0573504311833,-142.266
868.972919634427,-13.173
878.7286806683987,12.883
888.6343439553166,-137.128
898.3803611591502,-383.32
908.12155022542,-645.797
918.0124213310264,-844.678
927.743888384779,-900.069
937.4705381077074,-732.079
947.3466501411676,-260.821
957.0635996041163,355.665
966.7757425107702,329.319
976.6371284824854,-79.037
986.3395928168538,-150.169
996.0372613373548,345.126
1005.7301375988682,-216.033
1015.5719657306544,-92.209
1025.255192198514,-374.106
1034.9336371072422,526.911
1044.6073039976543,100.113
1054.2761964070742,302.974
1063.9403178693246,374.106
1073.5996719147442,295.07
1083.4074711432768,-532.18
1093.057225399156,-134.362
1102.70222286418,-276.628
1112.3424670547538,94.844
1121.9779614837898,-155.439
1131.6087096607444,-252.917
1141.2347150916105,-189.688
1150.855981278939,350.395
1160.4725117218331,205.495
1170.0843099159465,-366.203
1179.6913793534914,-81.671
1189.293723523253,358.299
1198.739039559725,-94.844
1208.3320185130287,-7.904
1217.9202825891407,-26.346
1227.5038352631818,279.263
1237.0826800068826,-1317.276
1246.6568202885535,-223.937
1256.226259573108,-200.226
1265.639216696829,57.96
1275.1993388504195,337.223
1284.7547703264208,-266.09
1294.3055145761757,-194.957
1303.7000868433097,97.478
1313.241541245312,5.269
1322.778318700337,-76.402
1332.310422646282,-84.306
1341.686663866676,115.92
1351.2095051416618,289.801
1360.727683146746,-65.864
1370.0902294598782,23.711
1379.5991650801443,-136.997
1388.9526223370776,102.748
1398.4523290278594,-144.9
1407.7967104575073,126.459
1417.287201648047,-442.605
1426.7730533080105,136.997
1436.1038095471376,-331.954
1445.5804658554116,-131.728
1454.9021792800197,-353.03
1464.369653600741,245.013
1473.6823373500883,-587.505
1482.9905472474493,-358.299
1492.444310209452,229.206
1501.7435100404182,877.306
1511.1881242589734,-268.724
1520.4783270994303,371.472
1529.764072276041,-176.515
1539.1950247490097,-92.209
1548.4717924494323,2.635
1557.7441121511074,139.631
1567.1614324998736,65.864
1576.4247941832873,-279.263
1585.6837175051332,308.243
1594.9382056544855,-100.113
1604.3374199708342,2.635
1613.5829759239496,-152.804
1622.8241063047317,429.432
1632.0608142900164,360.934
1641.2931030535765,634.927
1650.6697762525291,408.356
1659.8931649322622,18.442
1669.1121439444323,31.615
1678.3267164506542,-250.282
1687.53688560953,674.445
1696.7426545766284,-121.189
1705.9440265045123,194.957
1715.1410045427183,231.841
1724.3335918377925,-289.801
1733.5217915332687,-305.608
1742.705606769683,252.917
1751.8850406845886,-110.651
1761.0600964125188,-36.884
1770.230777085024,-68.498
1779.397085830693,300.339
1788.55902577511,247.648
1797.7166000408906,-5.269
1806.8698117476447,86.94
1816.0186640120735,353.03
1825.163159947857,205.495
1834.1559155330324,-279.263
1843.29177827917,-28.98
1852.4232939699289,-113.286
1861.550465707216,305.608
1870.673296589972,-15.807
1879.644751645923,52.691
1888.758979994156,23.711
1897.8688767172423,-408.356
1906.974444902422,-671.811
1915.9289277003045,-65.864
1925.025917750907,160.708
1934.118588458099,-60.595
1943.060390766601,-213.399
1952.144501554074,-2.635
1961.2243021666216,134.362
1970.153450902042,266.09
1979.224709758193,202.861
1988.1454604369865,-408.356
1997.208189584475,-339.857
2006.120554048888,21.076
2015.1747655127983,-555.891
2024.0787555828572,-466.316
2033.12446136566,-233.0
2042.0200888391555,-72.787
2051.057300920809,20.881
2059.9445775734057,54.572
2068.9733079113576,34.839
2077.852245496608,-31.748
2086.8725060258803,-138.639
2095.743116275291,-279.263
2104.6096010526526,-234.475
2113.6172135316083,437.336
2122.4753884816528,-121.189
2131.329446630596,-126.459
2140.324437642892,-71.133
2149.170203423979,-379.376
2158.011861050589,247.648
2166.994257105456,197.591
2175.8276397748195,57.96
2184.656922912145,308.243
2193.48210937062,-55.326
2202.303202000803,645.465
2211.2647105948345,1122.319
2220.077557114586,671.811
2228.886318388424,218.668
2237.6909972563008,-81.671
2246.4915965555265,576.967
2255.2881191208,-26.346
2264.0805677841927,176.515
2272.8689453751285,60.595
2281.6532547204406,281.897
2290.5774032157133,-189.688
2299.353517963282,-144.9
2308.125572976198,187.053
2316.893571070781,108.017
2325.6575150607823,-13.173
2334.273835606975,519.007
2343.029746164546,28.98
2351.781610997117,63.229
2360.5294329081007,329.319
2369.273214698267,324.05
2378.0129591658333,18.442
2386.7486691064114,-115.92
2395.48034731306,94.844
2404.2079965762314,273.993
2412.788641914361,-273.993
2421.5083075861257,-305.608
2430.2239526247795,273.993
2438.9355798105607,65.864
2447.64319192111,237.11
2456.204142101211,144.9
2464.9037980916983,-42.153
2473.5994472792227,179.15
2482.148638712344,18.442
2490.836348166158,184.419
2499.5200590665554,-584.871
2508.0575159626023,-516.372
2516.7333034706826,192.322
2525.405100652257,268.724
2533.930847154741,213.399
2542.5947372405863,-213.399
2551.112711590584,2.635
2559.768705390503,0.0
2568.2789182109263,39.518
2576.927026515033,123.824
2585.5711635713087,-63.229
2594.069721988235,-695.522
2602.5644435408976,-155.439
2611.196813145194,-13.173
2619.683804921093,42.153
2628.3083212822166,-123.824
2636.7875938271245,432.067
2645.404267656864,221.302
2653.875831497382,-144.9
2662.343576738021,-223.937
2670.948539131641,374.106
2679.408591378582,171.246
2687.8648328054915,-216.033
2696.4581076233444,-179.15
2704.906671724595,-258.186
2713.351432764532,843.057
2721.792393310454,268.724
2730.370143142005,255.552
2738.8034471581705,-273.993
2747.232958411034,-276.628
2755.658679458633,324.05
2764.220946338093,-168.611
2772.639031576786,466.316
2781.053334313052,-189.688
2789.463857095703,31.615
2797.8706024712737,-392.548
2806.2735729839987,305.608
2814.672771175843,-89.575
2823.0681995864725,-276.628
2831.459860753297,15.807
2839.847757211428,26.346
2848.231891493713,208.13
2856.612266130724,81.671
2864.988883650767,76.402
2873.3617465798743,-71.133
2881.7308574418275,-7.904
2890.096218758139,-131.728
2898.457833048058,-550.621
2906.815702828586,18.442
2915.169830614461,-202.861
2923.5202189181878,263.455
2931.8668702499926,165.977
2940.209787117892,34.249
2948.41001618022,-194.957
2956.7455337723804,-276.628
2965.077324369493,115.92
2973.405390470638,-202.861
2981.7297345726547,21.076
2989.9117125592966,339.857
2998.2286820744484,-73.767
3006.5419370261297,-52.691
3014.8514799023105,-316.146
3023.0189130185245,136.997
3031.3211009634906,300.339
3039.619584242202,-487.392
3047.776149306213,-65.864
3056.067292329164,-13.173
3064.2166442633534,1038.014
3072.500456765243,237.11
3080.780576892153,321.415
3088.919096831967,113.286
3097.1919010483834,-102.748
3105.3232317767324,337.223
3113.588729774354,60.595
3121.712880813,55.326
3129.9710822664056,13.173
3138.0880631202745,200.226
3146.338977686973,376.741
3154.448797844241,-152.804
3162.692435164703,-490.027
3170.7951040967964,102.748
3178.894230970407,150.169
3187.127000956163,30.466
3195.218990740796,-146.367
3203.3074454664093,-337.391
3211.5293695924192,-499.669
3219.610701328027,-590.263
3227.688504985643,-566.234
3235.899604670318,-384.645
3243.9702993997853,-189.688
3252.03747301393,-421.528
3260.1011278165533,102.748
3268.297848330192,113.286
3276.354412870096,648.1
3284.407465536773,-142.266
3292.4570086259846,803.539
3300.5030444314834,0.0
3308.545575245,-268.724
3316.720827896272,171.246
3324.756296283769,-105.382
3332.788266581294,60.595
3340.816741072602,150.169
3348.8417220394404,208.13
3356.8632117615925,271.359
3364.8812125168406,-210.764
3372.895726580995,-547.987
3380.906756227865,-468.95
3388.91430372934,292.435
3396.918371355256,171.246
3404.9189613735507,131.728
3412.9160760501472,-55.326
3420.909717649003,147.535
3428.8998884321263,-144.9
3436.886590659553,-28.98
3444.734546370892,218.668
3452.714376952972,-28.98
3460.690745709508,-21.076
3468.663654892749,395.183
3476.633106752961,179.15
3484.5991035384795,-474.219
3492.4267178764712,-18.442
3500.385869715596,-134.362
3508.341573175334,221.302
3516.293830496281,-247.648
3524.1079469444667,-89.575
3532.0533770164475,129.093
3539.9953676218797,-929.997
3547.7993978646555,-1646.09
3555.734574435446,-1816.329
3563.666318194715,-1592.341
3571.460281747888,-1125.753
3579.385224652753,-568.181
3587.30674138396,-71.256
3595.090657713052,213.399
3603.00538673612,216.033
3610.782634691175,136.997
3618.6905847266535,28.98
3626.461172873067,-136.997
3634.362352626544,-31.615
3642.1262895150494,65.864
3650.020707677235,76.402
3657.778001843908,-258.186
3665.665667090652,-247.648
3673.416327056992,-179.15
3681.163701429177,55.326
3689.041282322214,0.0
3696.782035212709,-324.05
3704.6528847781447,284.532
3712.3870246721344,-281.897
3720.117889469839,279.263
3727.845481251112,366.203
3735.702951367959,590.14
3743.4239470074463,993.226
3751.141675895298,-123.824
3758.989119491133,-84.306
3766.700264858686,-429.432
3774.408149723422,89.575
3782.1127761528696,234.475
3789.814146212797,123.824
3797.644959575024,39.518
3805.339767031168,28.98
3813.03132434014,-300.339
3820.7196335607214,-305.608
3828.404696749953,94.844
3836.086515963114,189.688
3843.76509325378,-292.435
3851.4404306737633,-121.189
3859.112530273167,-310.877
3866.7813941003615,-142.266
3874.4470242019815,73.767
3882.109422622947,76.402
3889.7685914064414,-18.442
3897.4245325939337,727.137
3905.0772482251705,245.013
3912.7267403381848,-629.658
3920.373010969284,36.884
3928.016062153074,105.382
3935.655895922435,-210.764
3943.292514308545,197.591
3950.925919340858,-432.067
3958.424585178429,231.841
3966.051624900327,187.053
3973.675457311714,242.379
3981.296084435249,-113.286
3988.913508291902,113.286
3996.396478310664,102.748
4004.007556831755,476.854
4011.615438103967,57.96
4019.220124141517,287.166
4026.690583777876,-34.249
4034.288940385857,18.442
4041.8841077570687,-165.977
4049.3452186808136,-131.728
4056.934068499933,139.631
4064.519735065173,-476.854
4071.971514814119,15.807
4079.550875675057,-194.957
4086.996462302253,118.555
4094.5695253181984,134.362
4102.008926541021,360.934
4109.575699558212,-187.053
4117.008923081237,-131.728
4124.569413932906,-179.15
4131.996467447912,-840.422
4139.550683954272,-814.077
4146.971575140262,150.169
4154.519525108568,115.92
4161.93426163181,-250.282
4169.475952856366,-418.894
4228.011654085007,-213.399
4235.396210255021,445.239
4242.907210725418,-84.306
4250.415076793586,176.515
4257.7904449892885,168.611
4265.292102093408,-461.047
4272.790630641473,71.133
4280.156827999919,263.455
4287.649159161061,-42.153
4295.138367597785,223.937
4302.4954112134365,279.263
4309.978433811593,-39.518
4317.329402006981,-39.518
4324.8062464273535,55.326
4332.151146724958,-192.322
4339.621820615692,63.229
4346.960660525576,-136.997
4354.425171522191,-318.781
4361.757958542046,115.92
4369.216314267462,65.864
4376.543055882612,118.555
4383.9952639471885,63.229
4391.315967630617,-63.229
4398.762035632179,252.917
4406.07670884455,144.9
4413.516644368407,-171.246
4420.825294558097,-110.651
4428.130962180556,289.801
4435.561739780205,97.478
4442.861395497304,-474.219
4450.1580741507205,-171.246
4457.579710724684,727.137
4464.870388562711,150.169
4472.158094827057,-318.781
4479.570607232323,-276.628
4486.852323743988,-189.688
4494.131074158497,829.884
4501.534479210626,519.007
4508.807250907994,105.382
4516.077061971264,221.302
4523.3439142079005,-179.15
4530.735219799091,-150.169
4537.996107969229,350.395
4545.254042757973,181.784
4552.509025966887,89.575
4559.888261734326,-255.552
4567.13729547953,-487.392
4574.383383072374,-26.346
4581.626526308552,79.037
4588.866726982291,-47.422
4596.103986886381,18.442
4603.338307812148,-68.498
4610.69653172473,81.671
4617.92492857972,129.093
4625.150391852971,321.415
4632.372923329975,60.595
4639.592524794789,216.033
4646.809198030001,-155.439
4654.022944816745,-231.841
4661.233766934747,123.824
4668.441666162253,226.572
4675.646644276094,-10.538
4682.8487030516335,682.349
4690.047844262837,229.206
4697.244069682201,318.781
4704.437381080781,84.306
4711.627780228235,397.817
4718.815268892759,503.2
4725.999848841122,-400.452
4733.181521838655,-753.482
4740.3602896492885,-2299.964
4747.536154035501,213.399
4754.583300303697,490.027
4761.753413983191,26.346
4768.9206294863325,579.602
4776.084948569973,202.861
4783.246372989488,108.017
4790.404904498872,-36.884
4797.435032206777,-598.043
4804.5878338284165,81.671
4811.73774776268,79.037
4818.884775757928,347.761
4826.028919561082,55.326
4833.044920461813,82.793
4840.183351639585,82.793
4847.3189038270575,82.793
4854.451578765569,82.793
4861.456318765864,82.793
4868.58329482688,82.793
4875.707398824052,82.793
4882.703723295803,82.793
4889.822138682386,82.793
4896.937687177771,82.793
4903.925611277555,82.793
4911.035481404608,82.793
4918.142489800703,82.793
4925.122028648751,82.793
4932.223368894192,82.793
4939.197342363797,82.793
4946.293021236786,82.793
4953.385846941688,82.793
4960.35146024984,82.793
4967.43863475923,82.793
4974.398699333346,82.793
4981.480229398396,82.793
4988.43475186592,82.793
4995.510644227063,82.793
5002.459631204903,82.793
5009.529892591847,82.793
5016.473350686378,82.793
5023.537987818112,82.793
5030.475923625207,82.793
5037.534943210041,82.793
5044.467363315067,82.793
5051.397052412052,82.793
5058.447683028528,82.793
5065.371866252855,82.793
5072.416896017057,82.793
5079.335579928018,82.793
5086.251540943114,82.793
5093.288206657562,82.793
5100.198678149784,82.793
5107.106431592307,82.793
5114.134748143202,82.793
5121.037021830118,82.793
5127.93658230202,82.793
5134.833431158368,82.793
5141.85065500065,82.793
5148.742037069234,82.793
5155.630712341699,108.017
5162.516682412504,260.821
5169.522839786696,316.146
5176.403355996677,-21.076
5183.281171809234,-126.459
5190.156288813778,171.246
5197.028708598496,31.615
5204.021081907653,68.498
5210.888063918697,360.934
5217.752353495271,-102.748
5224.613952220541,105.382
5231.472861676462,611.216
5238.329083443728,-345.126
5245.182619101804,-71.133
5252.033470228904,121.189
5258.881638402017,92.209
5265.727125196914,147.535
5272.569932188097,439.97
5279.532181775125,268.724
5286.369586094326,334.588
5293.204315354014,92.209
5300.036371123795,231.841
5306.865754971979,413.625
5313.692468465706,-144.9
5320.516513170878,7.904
5327.216103720151,31.615
5334.034863128356,521.641
5340.850958410447,403.087
5347.664391127459,-216.033
5354.475162839211,208.13
5361.283275104273,255.552
5368.088729480027,208.13
5374.891527522632,371.472
5381.6916707870405,231.841
5388.489160826968,619.12
5395.162686039381,171.246
5401.954921596684,-131.728
5408.744508555763,350.395
5415.531448465517,316.146
5422.31574287366,313.512
5428.976315601984,-482.123
5435.7553708175255,408.356
5442.531785139763,100.113
5449.305560111599,76.402
5456.076697274744,271.359
5462.724355191152,321.415
5469.490268392445,-79.037
5476.253548375513,-194.957
5482.893493883399,-150.169
5489.651558992991,590.14
5496.406995464167,-511.103
5503.039241977291,413.625
5509.789472642318,76.402
5516.5370792381145,882.575
5523.161640139158,645.465
5529.904049975114,432.067
5536.643840300443,-287.166
5543.260728941095,234.475
5549.995331531944,492.661
5556.607128017575,-803.539
5563.336548861262,260.821
5569.943259067753,455.778
5576.667504142417,-110.651
5583.269133936614,-52.691
5589.988209211173,-47.422
5596.58476445092,392.548
5603.298675885118,2.635
5609.890162419251,-5.269
5616.598915963696,189.688
5623.185339632037,144.9
5629.888941228186,-205.495
5636.470307861637,97.478
5643.16876344182,379.376
5649.745078862296,47.422
5656.438394349752,142.266
5663.009664370256,-295.07
5669.578436568787,353.03
5676.264076103718,176.515
5682.827811578958,445.239
5689.3890535265455,584.871
5696.067030305661,400.452
5702.623244186747,200.226
5709.176968824671,-305.608
5715.847296014435,57.96
5722.39600122282,582.236
5728.942221462719,258.186
5735.4859581482815,142.266
5742.146121627004,39.518
5748.684850350968,213.399
5755.221099782248,316.146
5761.754871330697,173.88
5768.404894310675,592.774
5774.933669330552,-242.379
5781.459970716278,985.323
5787.983799873429,287.166
5794.505158206499,534.814
5801.142549523138,806.173
5807.658925557145,500.565
5814.172834999641,-47.422
5820.684279250832,-86.94
5827.193259709879,-297.704
5833.699777774898,-10.538
5840.203834842934,218.668
5846.7054323099655,271.359
5853.204571570954,795.635
5859.701254019747,268.724
5866.195481049195,144.9
5872.687254051074,-28.98
5879.176574416102,268.724
5885.663443533944,276.628
5892.14786279323,-121.189
5898.629833581537,-113.286
5905.109357285379,843.057
5911.586435290243,484.758
5918.061068980562,147.535
5924.533259739736,-55.326
5931.003008950094,590.14
5937.470317992949,260.821
5943.935188248557,245.013
5950.397621096134,432.067
5956.857617913869,-47.422
5963.315180078898,5.269
5969.7703089673305,313.512
5976.105705888956,-34.249
5982.556016527509,302.974
5989.003897986593,-237.11
5995.449351638199,366.203
6001.8923788532775,503.2
6008.215900781644,-84.306
6014.654123287393,84.306
6021.089923438405,76.402
6027.523302601519,-71.133
6033.954262142564,239.744
6040.265942433929,255.552
6046.692110755517,205.495
6053.115863521547,60.595
6059.420472023492,102.748
6065.839441620141,163.342
6072.255999718647,218.668
6078.553548309683,-168.611
6084.965331270854,750.847
6091.374706782226,255.552
6097.665207314269,-287.166
6104.06981570238,160.708
6110.472020679961,50.056
6116.755484978421,-144.9
6123.152930828903,1135.492
6129.431725134898,837.788
6135.824417162912,76.402
6142.098546680769,339.857
6148.486490183052,363.568
6154.872039648391,368.837
6161.139160374798,-92.209
6167.519969269015,39.518
6173.782438208022,-168.611
6180.158511808193,-360.934
6186.416334137088,-439.97
6192.787677712448,218.668
6199.040858600842,-44.787
6205.291741972564,-139.631
6211.656022022646,634.927
6217.902271670246,68.498
6224.261834810408,-31.615
6230.503455884398,429.432
6236.742785809074,247.648
6243.095304999864,142.266
6249.330014038809,-255.552
6255.677829386121,142.266
6261.907922670827,576.967
6268.1357311500615,-65.864
6274.476522051649,-23.711
6280.699722436162,345.126
6286.920641805642,68.498
6293.139281413962,131.728
6299.470738832184,102.748
6305.684780516531,181.784
6311.896546218988,-268.724
6318.106037189755,44.787
6324.428181717434,-15.807
6330.633084905065,384.645
6336.835717129172,194.957
6343.036079636258,621.754
6349.234173671932,376.741
6355.544716640681,-65.864
6361.738235515753,184.419
6367.929489673777,163.342
6374.118480356665,218.668
6380.305208805476,350.395
6386.489676260331,115.92
6392.671883960451,18.442
6398.851833144166,-521.641
6405.143905470883,-719.233
6411.319299566196,-208.13
6417.492438877496,447.874
6423.663324639478,698.156
6429.831958085924,-165.977
6435.998340449718,592.774
6442.162472962846,368.837
6448.324356856407,205.785
6454.483993360576,244.716
6460.641383704664,401.118
6466.79652911704,590.472
6472.949430825232,728.267
6479.100090055821,729.982
6485.248508034543,511.103
6491.280888225534,108.017
6497.424868822251,-94.844
6503.5666118162335,-134.362
6509.706118429633,342.492
6515.843389883739,-160.708
6521.978427398899,181.784
6528.111232194642,-18.442
6534.241805489546,102.748
6540.256680928833,118.555
6546.382836142315,158.073
6552.506763482961,479.489
6558.628464165849,79.037
6564.747939405184,10.538
6570.751928194237,342.492
6576.866997341494,160.708
6582.979844660076,-940.535
6589.090471360658,-447.874
6595.0857801617385,-26.346
6601.192010321647,453.143
6607.296023467985,405.721
6613.39782080795,-94.844
6619.384468430493,405.721
6625.481878753591,100.113
6631.577076864334,-57.96
6637.5572509579,658.638
6643.64806916556,337.223
6649.623946782151,168.611
6655.71038980603,0.0
6661.794626582923,208.13
6667.764048126817,221.302
6673.843916808139,305.608
6679.809053455574,-28.98
6685.884558743659,300.339
6691.957863728712,-329.319
6697.916561697035,221.302
6703.985510351609,76.402
6709.939934962422,-150.665
6716.004531971987,-228.231
6721.954687820689,-192.349
6728.014937863976,-79.076
6733.960829539363,75.533
6739.904610751524,235.418
6745.95836937274,364.525
6751.897893261092,426.798
6757.947316561804,421.528
6763.8825876987685,466.316
6769.927680334353,621.754
6775.858703285812,-247.648
6781.787623684751,81.671
6787.826249230238,-513.738
6793.750928258974,136.997
6799.673508107371,44.787
6805.705676935038,526.911
6811.624022213946,-28.98
6817.540271677499,563.794
6823.5659941374615,3085.061
6829.478015817709,608.582
6835.387945040406,245.013
6841.407231460638,339.857
6847.312939671727,231.841
6853.216558775894,471.585
6859.118089881435,-110.651
6865.017534095896,297.704
6871.026143398485,389.914
6876.921377827312,-42.153
6882.814528703813,-50.056
6888.705597132364,584.871
6894.594584216582,-36.884
6900.592544785228,463.681
6906.477333270021,79.037
6912.360043737404,155.439
6918.240677287846,595.409
6924.119235021055,-255.552
6929.995718035963,5.269
6935.870127430717,-100.113
6941.742464302697,273.993
6947.6127297485,616.485
6953.480924863958,645.465
6959.347050744116,416.259
6965.21110848328,2407.981
6971.073099174937,650.734
6976.93302391185,79.037
6982.79088378598,-123.824
6988.64667988853,358.299
6994.500413309928,476.854
7000.35208513985,302.974
7006.201696467178,-15.807
7012.049248380063,158.073
7017.894741965851,463.681
7023.738178311156,-345.126
7029.579558501813,366.203
7035.418883622879,-134.362
7041.2561547586665,242.379
7047.091372992727,858.864
7052.924539407839,252.917
7058.645653010426,276.628
7064.474757695687,-52.691
7070.301813785409,500.565
7076.126822359336,179.15
7081.949784496486,258.186
7087.660891581778,458.412
7093.479802640664,28.98
7099.296670474898,316.146
7105.111496160462,642.831
7110.814624476749,-242.379
7116.625407570507,221.302
7122.434151718757,15.807
7128.2408579944895,52.691
7133.936024250346,179.15
7139.73869639702,221.302
7145.53933386541,131.728
7151.22854892195,337.223
7157.025158582874,395.183
7162.819736753059,305.608
7168.503009933542,-129.093
7174.293566604632,5.269
7180.082094965896,-231.841
7185.759435574095,134.362
7191.54394873148,84.306
7197.2173519438,192.322
7202.997854073568,511.103
7208.667323984642,432.067
7214.443819257263,-221.302
7220.109359956041,600.678
7225.881852536215,405.721
7231.54346810597,-437.336
7237.311962152613,576.967
7242.969656670975,-163.342
7248.734156337254,139.631
7254.387933876205,-5.269
7260.148443309525,229.206
7265.798307935409,-200.226
7271.554831277448,155.439
7277.20078705097,258.186
7282.953328437674,202.861
7288.59537941395,231.841
7294.235498085545,-36.884
7299.982093204053,405.721
7305.618313131272,513.738
7311.252603748333,189.688
7316.993261813666,305.608
7322.623659726734,511.103
7328.252131317968,526.911
7333.9868615261075,266.09
7339.611446441268,740.309
7345.234108016753,432.067
7350.962919544712,-84.306
7356.581700459581,816.711
7362.198561010817,297.704
7367.813502182726,474.219
7373.426524958988,648.1
7379.145517410223,3683.104
7384.7546694986595,100.113
7390.361906157261,384.645
7395.967228366993,89.575
7401.570637108154,537.449
7407.279835705631,932.632
7412.879383697611,187.053
7418.477021176703,476.854
7424.072749120482,-468.95
7429.666568505905,503.2
7435.258480309247,47.422
7440.848485506111,413.625
7446.436585071431,184.419
7452.022779979503,439.97
7457.607071203925,379.376
7463.296794702215,113.286
7468.877244915177,669.176
7474.455794380043,508.469
7480.032444067743,653.369
7485.607194948596,-387.279
7491.18004799222,71.133
7496.751004167574,-266.09
7502.2129850032,110.651
7507.7801867781745,-89.575
7513.345494569261,474.219
7518.908909342786,160.708
7524.470432064445,231.841
7530.03006369928,266.09
7535.587805211653,292.435
7541.1436575652915,408.356
7546.697621723266,131.728
7552.249698647978,258.186
7557.693172648,-142.266
7563.241514237732,482.123
7568.787971459049,1024.841
7574.332545271769,26.346
7579.87523663506,300.339
7585.416046507413,-55.326
7590.848475703144,468.95
7596.385561603231,147.535
7601.920768865631,484.758
7607.454098446255,97.478
7612.879194899509,339.857
7618.4088080453,363.568
7623.936546354853,158.073
7629.462410781522,10.538
7634.880189328982,329.319
7640.402344837916,305.608
7645.9226293018255,192.322
7651.334937948188,118.555
7656.851519109852,777.193
7662.260197498763,216.033
7667.773079083498,824.615
7673.284094334183,292.435
7678.687316594296,-97.478
7684.194637864675,645.465
7689.7000956236625,302.974
7695.097870006797,31.615
7700.599639370841,-537.449
7705.993798107356,123.824
7711.491882781789,316.146
7716.882429503323,292.435
7722.376833188511,168.611
7727.763771521855,105.382
7733.254497913214,347.761
7738.637831480286,505.834
7744.124884268305,-337.223
7749.504616686187,231.841
7754.987999556393,403.087
7760.364134437317,31.615
7765.738489349154,176.515
7771.216392021717,310.877
7776.587154788423,171.246
7782.061396717661,13.173
7787.428570939446,540.083
7792.793969640064,55.326
7798.262745065967,-316.146
7803.624560595526,650.734
7808.984603262106,187.053
7814.447920368751,242.379
7819.804385227417,147.535
7825.159079875983,100.113
7830.616946831127,-52.691
7835.968069024231,-247.648
7841.317423654822,65.864
7846.665011598543,621.754
7852.115636126822,10.538
7857.459658723532,223.937
7862.801917273948,840.422
7868.142412651388,100.113
7873.481145728587,216.033
7878.922746278997,150.169
7884.257922859626,331.954
7889.59133977185,142.266
7894.922997886111,326.685
7900.252898072242,147.535
7905.581041199541,922.093
7910.907428136696,150.169
7916.336446752692,5.269
7921.65928952102,800.904
7926.980378718883,611.216
7932.29971521271,-479.489
7937.617299868325,1159.203
7942.933133550996,108.017
7948.247217125423,-97.478
7953.559551455743,-89.575
7958.870137405502,-118.555
7964.178975837705,505.834
7969.486067614758,-163.342
7974.791413598527,318.781
7980.0950146503055,701.874
7985.396871630804,651.676
7990.696985400187,324.551
7995.995356818043,-123.134
8001.291986743403,-535.006
8006.586876034729,-754.704
8011.880025549901,-625.857
8017.067699705829,7.904
8022.357406311574,766.655
8027.645375694708,97.478
8032.931608710882,-200.226
8038.216106215201,223.937
8043.498869062179,5.269
8048.779898105804,197.591
8053.955695240969,893.113
8059.233293192043,395.183
8064.509159881611,677.08
8069.783296161415,500.565
8074.952338977277,187.053
8080.223050878609,-57.96
8085.492034905405,163.342
8090.759291907168,266.09
8095.921593616502,-184.419
8101.185432936367,342.492
8106.447547759821,268.724
8111.604810570996,1185.549
8116.863512715307,384.645
8122.120492886879,131.728
8127.272724173963,1425.556
8132.526296659391,1425.556
8137.778149690843,1425.556
8142.925356813517,1425.556
8148.173807142077,1425.556
8153.4205405305,1425.556
8158.562730834117,841.081
8163.806066493191,841.081
8168.944927307508,841.081
8174.184868536668,841.081
8179.32040309432,841.081
8184.55695318873,841.081
8189.689164718173,841.081
8194.922326968728,841.081
8200.051218694258,841.081
8205.280996387602,463.681
8210.406571529322,432.067
8215.632967947844,337.223
8220.7552297217,545.352
8225.978248143558,-495.296
8231.097199761349,165.977
8236.316843460441,1912.685
8241.43248812982,516.372
8246.546496881761,205.495
8251.76110130029,432.067
8256.871807891675,205.495
8261.98088093357,81.671
8267.190453365733,134.362
8272.296229025691,442.605
8277.400373499535,355.665
8282.604921225458,255.552
8287.705773086778,532.18
8292.804996120794,-31.615
8298.004526406577,-5.269
8303.100461588281,497.93
8308.194770296956,608.582
8313.28745331115,263.455
8318.48031600209,123.824
8323.569717486189,44.787
8328.657495624051,347.761
8333.743651192239,490.027
8338.828184966831,176.515
8344.012739449463,152.804
8349.093999566121,105.382
8354.17364022991,289.801
8359.251662214898,821.98
8364.328066294685,300.339
8369.402853242376,97.478
8374.476023830553,397.817
8379.547578831349,389.914
8384.718901354245,334.588
8389.787195221597,821.98
8394.853875830348,308.243
8399.91894395064,297.704
8404.98240035212,281.897
8410.044245803958,629.658
8415.104481074803,482.123
8420.163106932847,1396.313
8425.220124145773,86.94
8430.275533480788,-18.442
8435.32933570461,658.638
8440.381531583458,397.817
8445.432121883085,405.721
8450.48110736873,497.93
8455.528488805172,384.645
8460.473367100913,566.429
8465.51757477424,321.415
8470.560180674485,142.266
8475.601185564497,295.07
8480.64059020661,268.724
8485.67839536271,545.352
8490.714601794163,297.704
8495.749210261878,-31.615
8500.681576948675,144.9
8505.713023691114,263.455
8510.742874734438,331.954
8515.771130837642,139.631
8520.797792759218,534.814
8525.722375497866,468.95
8530.745883175656,213.399
8535.7677989293,405.721
8540.788123515384,429.432
8545.706498587671,700.791
8550.723674892208,650.734
8555.739262280982,-347.761
8560.652997083213,-1035.964
8565.665440644778,-1258.007
8570.676297538128,-1133.738
8575.585398634048,-783.013
8580.593116146138,-325.673
8585.599249233324,118.423
8590.503723174297,429.432
8595.506721317797,418.894
8600.508137275468,44.787
8605.40799060051,879.941
8610.406276043708,250.282
8615.303062904772,171.246
8620.298220771765,271.359
8625.191944046568,753.482
8630.18397727198,-79.037
8635.074639834631,418.894
8640.063551349394,424.163
8644.951156070434,503.2
8649.936948801806,260.821
8654.821498548154,239.744
8659.804175419777,305.608
8664.685673054784,516.372
8669.665236986599,864.133
8674.543685370048,542.718
8679.520139278378,677.08
8684.395541266465,-263.455
8689.2694364983,442.605
8694.241246509358,811.442
8699.112099609058,392.548
8703.981448060618,100.113
8708.948620671701,213.399
8713.81493124642,118.555
8718.779005433622,400.452
8723.642280973501,276.628
8728.504055374753,321.415
8733.364329332315,911.555
8738.32224658698,339.857
8743.179491154478,-302.974
8748.035237374625,1016.937
8752.889485940628,634.927
8757.8412577103,-47.422
8762.692482517024,487.392
8767.542211760752,331.954
8772.39044613298,-194.957
8777.336083836857,2.635
8782.18130006664,408.356
8787.02502351089,576.967
8791.867254859393,23.711
8796.707994801498,455.778
8801.547244026118,1446.369
8806.385003221756,729.771
8811.319956958603,-123.824
8816.154707786565,487.392
8820.987970662514,466.316
8825.819746273257,247.648
8830.650035305174,239.744
8835.478838444196,640.196
8840.306156375878,121.189
8845.131989785303,102.748
8849.956339357173,258.186
8854.779205775758,576.967
8859.60058972489,777.193
8864.420491888006,194.957
8869.238912948098,308.243
8874.055853587757,753.482
8878.871314489159,-218.668
8883.685296334032,787.731
8888.497799803714,179.15
8893.308825579123,295.07
8898.118374340735,547.987
8902.926446768637,555.891
8907.634964476681,534.814
8912.440116370435,761.386
8917.243793954342,395.183
8922.045997906822,374.106
8926.846728905857,413.625
8931.645987629043,656.004
8936.443774753548,479.489
8941.142221650607,-208.13
8945.937097605834,466.316
8950.73050397759,787.731
8955.522441441404,980.054
8960.215160665939,44.787
8965.004192282166,505.834
8969.791757000756,115.92
8974.577855495572,1182.914
8979.26485751475,590.14
8984.048055470721,808.808
8988.829789208343,869.402
8993.51251749025,350.395
8998.291354655303,245.013
9003.068729603765,339.857
9007.747189991118,584.871
9012.521672326067,168.611
9017.294694442531,613.851
9021.968892767374,379.376
9026.739026222178,447.874
9031.41039612206,-2689.878
9036.17764353675,408.356
9040.943434050514,579.602
9045.610551571128,856.23
9050.373459984672,110.651
9055.037755503963,948.439
9059.797784430888,-86.94
9064.45926050758,940.535
9069.216412558366,189.688
9073.87507174812,94.844
9078.629349530078,231.841
9083.285194385431,363.568
9088.036600502714,418.894
9092.689633573158,814.077
9097.438170626783,637.562
9102.088394458704,600.678
9106.73722909284,281.897
9111.481482183284,200.226
9116.12751137963,553.256
9120.868901881862,571.698
9125.512128179163,779.828
9130.153968412898,492.661
9134.891084617178,700.791
9139.53012574118,542.718
9144.167782675046,1019.572
9148.9006303586,571.698
9153.535491965213,793.0
9158.168971251744,42.153
9162.801068836525,569.063
9167.528243916331,358.299
9172.157551197888,416.259
9176.785478643267,745.578
9181.412026869286,55.326
9186.13353953768,197.591
9190.757302472506,424.163
9195.37968804908,189.688
9200.000696882766,916.824
9204.620329588544,92.209
9209.334785850184,-476.854
9213.951639506451,231.841
9218.567118890363,-226.572
9223.181224615444,816.711
9227.79395729483,245.013
9232.40531754132,379.376
9237.015305967328,168.611
9241.623923184923,353.03
9246.23116980579,537.449
9250.932987640888,376.741
9255.537466379788,574.332
9260.140576367572,287.166
9264.742318214474,558.525
9269.342692530376,-68.498
9273.941699924766,276.628
9278.539341006806,353.03
9283.135616385269,819.346
9287.730526668583,266.09
9292.324072464791,956.343
9296.91625438162,461.047
9301.411444872112,379.376
9306.00092923447,843.057
9310.589051525738,260.821
9315.175812352172,395.183
9319.761212319692,482.123
9324.345252033823,-52.691
9328.927932099774,189.688
9333.509253122353,595.409
9338.08921570604,611.216
9342.572446701386,547.987
9347.149722488744,184.419
9351.7256416359,490.027
9356.300204745894,237.11
9360.873412421412,479.489
9365.350032145325,439.97
9369.920558965528,421.528
9374.489732144635,519.007
9379.05755228394,-229.206
9383.528899030936,814.077
9388.09404305015,550.621
9392.657835818722,200.226
9397.125240831178,490.027
9401.6863610176,532.18
9406.246131739394,-139.631
9410.80455359534,255.552
9415.266701898625,1051.186
9419.822455888205,619.12
9424.281993052333,803.539
9428.835081516963,521.641
9433.38682407955,1238.24
9437.84243511156,350.395
9442.391515668474,326.685
9446.84452129656,529.545
9451.390942182352,318.781
9455.93602012123,429.432
9460.385108237591,584.871
9464.927530014324,273.993
9469.374018445214,374.106
9473.913786387537,350.395
9478.35767741084,935.266
9482.894793843763,-305.608
9487.33608973474,611.216
9491.87055698055,-5.269
9496.30926001177,669.176
9500.74668109923,-229.206
9505.277192831463,192.322
9509.71202445114,708.695
9514.23989277796,160.708
9518.672137195834,337.223
9523.103102466685,384.645
9527.62702390948,226.572
9532.05540536064,592.774
9536.57668916292,194.957
9541.002489053764,308.243
9545.42701258622,-50.056
9549.850260312329,237.11
9554.36630345335,526.911
9558.78697410632,271.359
9563.206370618926,84.306
9567.718482324255,281.897
9572.13530512818,439.97
9576.550855454823,144.9
9580.965133854,397.817
9585.47202083257,1209.26
9589.883729992052,297.704
9594.294168883298,158.073
9598.703338054846,326.685
9603.111238054931,550.621
9607.611613766734,200.226
9612.016950092931,534.814
9616.421018902103,519.007
9620.823820741218,629.658
9625.225356156909,587.505
9629.625625695517,181.784
9634.02462990307,476.854
9638.422369325252,461.047
9642.81884450748,413.625
9647.21405599481,144.9
9651.701478874824,732.406
9656.094137748323,287.166
9660.485534571855,671.811
9664.875669889248,287.166
9669.264544244,837.788
9673.65215817932,605.947
9678.03851223808,453.143
9682.423606962846,505.834
9686.807442895892,503.2
9691.19002057915,245.013
9695.478134071804,-223.937
9699.858223622705,439.97
9704.23705653629,247.648
9708.614633353289,-7.904
9712.990954614088,371.472
9717.36602085878,627.024
9721.739832627154,547.987
9726.112390458671,376.741
9730.483694892511,42.153
9734.760779687776,123.824
9739.129605581998,350.395
9743.497179682729,113.286
9747.863502527893,86.94
9752.228574655115,492.661
9756.499562339395,624.389
9760.862161224974,213.399
9765.223510992222,1032.745
9769.583612177565,-31.615
9773.849736751828,1045.917
9778.207368918504,642.831
9782.563754099236,671.811
9786.918892829211,513.738
9791.18016259473,18.442
9795.532836519418,366.203
9799.884265585692,703.426
9804.14190615754,150.169
9808.490873566669,661.273
9812.83859770701,363.568
9817.09261371952,603.313
9821.437879345483,497.93
9825.689490172908,231.841
9830.032299369228,-63.229
9834.373867936378,300.339
9838.621861899856,724.502
9842.960977171238,160.708
9847.206571054325,181.784
9851.543235108787,474.219
9855.786430944943,458.412
9860.12064585897,223.937
9864.361445679362,342.492
9868.693213527116,79.037
9872.931619360628,524.276
9877.26094221391,252.917
9881.49695608711,653.369
9885.823836015392,687.618
9890.057459952584,165.977
9894.289902518456,418.894
9898.613135046206,-160.708
9902.843190697367,724.502
9907.163985452502,360.934
9911.391656207565,555.891
9915.61814808206,387.279
9919.935303126713,703.426
9924.15941311792,189.688
9928.38234571751,1043.283
9932.695865648708,516.372
9936.91641937277,537.449
9941.135797191648,353.03
9945.445686598703,476.854
9949.662688544726,289.801
9953.878516069532,458.412
9958.09316966365,666.542
9962.398234183594,679.715
9966.61051589339,529.545
9970.821625153134,387.279
9975.031562452265,692.887
9979.240328279942,71.133
9983.53937957713,977.419
9987.745778488254,534.814
9991.95100740443,395.183
9996.155066813732,513.738
10000.357957203963,339.857
10004.55967906266,197.591
10008.760232877092,-134.362
10013.050897176752,-7.904
10017.249090997648,-21.076
10021.446118245014,590.14
10025.641979405023,105.382
10029.83667496358,479.489
10034.03020540632,345.126
10038.222571218605,521.641
10042.413772885537,595.409
10046.603810891938,239.744
10050.79268572236,-165.977
10054.980397861098,476.854
10059.16694779218,505.834
10063.352335999334,389.914
10067.536562966066,134.362
10071.719629175575,316.146
10075.90153511081,687.618
10080.082281254454,511.103
10084.26186808891,60.595
10088.440296096323,972.15
10092.52676786215,645.465
10096.702904826674,598.043
10100.877884398516,136.997
10105.051707058765,84.306
10109.224373288234,466.316
10113.395883567471,709.652
10117.475590772649,751.021
10121.64481569536,654.657
10125.812886097472,484.795
10129.979802458443,305.661
10134.145565257517,181.491
10138.219652237512,176.515
10142.383134400929,242.379
10146.545464428116,168.611
10150.706642797257,785.097
10154.776246850048,366.203
10158.935148346747,-63.229
10163.092899607942,210.764
10167.159152430871,39.518
10171.314629631466,360.934
10175.468958016776,748.213
10179.531863747628,703.426
10183.683920879565,408.356
10187.834830614069,305.608
10191.894393383842,1085.436
10196.043034667582,42.153
10200.190529969435,-110.651
10204.246753902304,213.399
10208.391983551395,63.229
10212.44599199288,587.505
10216.588957845182,521.641
10220.640752609928,60.595
10224.781456519388,115.92
10228.831039420063,213.399
10232.969483238625,953.708
10237.016856085897,374.106
10241.15304166346,468.95
10245.19820626604,187.053
10249.332135450502,861.499
10253.375093615126,898.382
10257.506768252357,221.302
10261.547521783785,453.143
10265.58718577827,684.984
10269.715494418666,608.582
10273.752956473523,121.189
10277.87901516247,966.881
10281.91427707755,600.678
10285.948451675904,848.326
10290.0711512271,237.11
10294.10312837192,366.203
10298.13401952729,645.465
10302.253364041218,640.196
10306.282060424935,511.103
10310.309672144327,71.133
10314.425665714796,358.299
10318.451085340042,690.253
10322.475421623927,771.924
10326.498675003731,26.346
10330.610215200984,450.508
10334.631280043344,405.721
10338.651263301725,682.349
10342.670165412448,666.542
10346.687986811625,337.223
10350.704727935088,492.661
10354.80961387438,576.967
10358.824171771252,474.554
10362.837650708272,243.403
10366.850051120337,-41.584
10370.86137344214,-305.492
10374.871618108127,-473.422
10378.880785552512,-470.459
10382.888876209276,-221.703
10386.984923052532,347.761
10390.990837530662,872.037
10394.995676531347,192.322
10398.999440487634,590.14
10403.00212983234,158.073
10407.003744998048,-144.9
10411.004286417105,397.817
10415.003754521616,566.429
10419.002149743475,160.708
10422.999472514348,368.837
10426.995723265634,429.432
10430.990902428544,758.751
10434.985010434026,-63.229
10438.889325180557,500.565
10442.881315942828,155.439
10446.872236829608,716.598
10450.86208827093,-105.382
10454.85087069661,922.093
10458.838584536235,-18.442
10462.82523021915,-42.153
10466.810808174472,-57.96
10470.706785742112,690.253
10474.690253232264,700.791
10478.672654271297,684.984
10482.653989287404,745.578
10486.634258708573,692.887
10490.525047770485,-279.263
10494.50321094102,321.415
10498.480309789697,634.927
10502.45634474356,142.266
10506.342995080442,-171.246
10510.316927143493,295.07
10514.2897965821,821.98
10518.261603822417,887.844
10522.144122034457,458.412
10526.113829736623,147.535
10530.082476508169,540.083
10533.961905709137,547.987
10537.92845544769,171.246
10541.89394552126,223.937
10545.770289396216,355.665
10549.733684937964,471.585
10553.607981637546,242.379
10557.569284306495,887.844
10561.52952941227,1016.937
10565.400746905443,690.253
10569.35890163298,150.169
10573.22807600992,252.917
10577.184142013864,57.96
10581.05127489159,497.93
10585.005253824836,1030.11
10588.87034681866,184.419
10592.822240332363,255.552
10596.685295055897,553.256
10600.635104799476,-63.229
10604.496122864624,-34.249
10608.443850485746,-126.459
10612.302833502728,684.984
10616.160811022752,490.027
10620.10543022464,302.974
10623.9613750996,213.399
10627.903916281392,284.532
10631.757830117263,-5.269
10635.61074043666,-15.807
10639.550179321655,382.01
10643.401060998756,163.342
10647.250940343372,197.591
10651.187280591832,-13.173
10655.035133687184,-366.203
10658.881985632182,1011.668
10662.815230898605,231.841
10666.660058983602,-34.249
10670.50388709854,13.173
10674.346715633475,695.522
10678.275847672114,-187.053
10682.116655520924,-342.492
10685.956464967534,405.721
10689.795276401208,366.203
10693.633090210977,305.608
10697.557095575656,-73.767
10701.39289265285,1019.572
10705.227693280882,313.512
10709.061497847986,848.326
10712.894306742182,439.97
10716.726120351308,482.123
10720.55693906298,-89.575
10724.386763264632,86.94
10728.302600658342,458.412
10732.130414421008,-318.781
10735.957234843503,110.651
10739.783062312445,181.784
10743.60789721425,447.874
10747.431739935131,437.336
10751.254590861114,21.076
10755.076450378,408.356
10758.897318871408,184.419
10762.717196726757,-221.302
10766.536084329256,234.475
10770.353982063916,197.591
10774.170890315563,150.169
10777.98680946881,194.957
10781.801739908076,484.758
10785.615682017564,355.665
10789.341989100834,-279.263
10793.153978142976,271.359
10796.964979998098,81.671
10800.774995049622,-271.359
10804.58402368077,331.954
10808.392066274577,-13.173
10812.199123213884,621.754
10816.005194881312,92.209
10819.723813349112,192.322
10823.52793799081,165.977
10827.331078498672,221.302
10831.133235254529,-5.269
10834.848029253728,-321.415
10838.64824198676,-50.056
10842.447472103491,321.415
10846.24571998498,371.472
10849.956695412544,397.817
10853.753002267928,150.169
10857.548328021428,-424.163
10861.342673053316,160.708
10865.049835794096,790.366
10868.842242790466,-68.498
10872.63367019626,-761.915
10876.337982712816,-908.607
10880.12747431772,-679.158
10883.82989575329,-244.158
10887.617453039476,225.811
10891.404032613404,560.156
10895.103609289945,588.293
10898.88825677408,139.631
10902.585945994537,-484.758
10906.368662867266,26.346
10910.150403901262,-50.056
10913.845253813895,363.568
10917.62506645972,160.708
10921.318032531915,-10.538
10925.095918264182,-57.96
10928.787001936307,648.1
10932.562962228116,426.798
10936.252164939066,92.209
10939.940438510435,432.067
10943.713524449233,-192.322
10947.399919206764,126.459
10951.171083372872,-416.259
10954.855600751816,-445.239
10958.62484461311,316.146
10962.307486047235,-181.784
10965.989200819247,371.472
10969.755577991731,118.555
10973.435418958636,252.917
10977.114334320191,189.688
10980.877848072992,305.608
10984.554891765896,-329.319
10988.231010908596,134.362
10991.991664505884,466.316
10995.665914113146,455.778
10999.33924022374,779.828
11003.011643185791,-271.359
11006.768495629847,218.668
11010.439031890255,129.093
11014.108646053544,-1027.475
11017.777338467138,-68.498
11021.530395518184,479.489
11025.197224058184,136.997
11028.863131897786,355.665
11032.528119383707,737.675
11036.192186862492,-113.286
11039.855334680517,79.037
11043.602720353196,-92.209
11047.264008520897,-247.648
11050.924378073953,271.359
11054.58382935806,345.126
11058.242362718707,250.282
11061.899978501227,97.478
11065.556677050785,-65.864
11069.21245871235,231.841
11072.867323830738,152.804
11076.521272750586,142.266
11080.174305816368,239.744
11083.826423372368,-318.781
11087.477625762698,331.954
11091.127913331318,-234.475
11094.777286422,123.584
11098.425745378345,123.584
11102.073290543767,123.584
11105.719922261547,123.584
11109.36564087477,123.584
11113.010446726335,123.584
11116.654340159006,123.584
11120.29732151534,123.584
11123.93939113774,123.584
11127.580549368427,123.584
11131.22079654947,123.584
11134.77550763161,123.584
11138.413954906267,123.584
11142.051492148485,123.584
11145.688119699626,123.584
11149.323837900913,123.584
11152.958647093375,123.584
11156.508048620988,123.584
11160.141061938251,123.584
11163.773167260852,123.584
11167.40436492916,123.584
11170.950240228543,263.455
11174.579644697213,79.037
11178.208142523734,-86.94
11181.751381744987,339.857
11185.378088371155,403.087
11189.003889365817,123.824
11192.628785068173,700.791
11196.16850723805,363.568
11199.79161440632,-142.266
11203.413817290922,-563.794
11206.950910239968,65.864
11210.571326582844,-461.047
11214.10667518314,144.9
11217.725306305692,-202.861
11221.343034819707,-110.651
11224.875759069631,-882.575
11228.49170435076,-84.306
11232.022687482247,-118.555
11235.636850848638,134.362
11239.166094148528,384.431
11242.778476917028,566.348
11246.305981670925,670.992
11249.91658515709,689.236
11253.442352649325,611.961
11257.05117816741,430.045
11260.575209681025,134.362
11264.182258544,-142.266
11267.704555360804,76.402
11271.309828880325,511.103
11274.83039228086,208.13
11278.350099642112,-79.037
11281.952723030843,192.322
11285.470698886753,-150.169
11288.987819646914,155.439
11292.587795825824,-316.146
11296.103186988752,-524.276
11299.70139304264,71.133
11303.215055883851,-105.382
11306.727865201254,7.904
11310.23982130582,223.937
11313.834511810855,63.229
11317.34474212601,-60.595
11320.8541201677,126.459
11324.446172200132,-89.575
11327.953826352135,105.382
11331.460629168672,-136.997
11334.96658095964,-273.993
11338.471682034791,208.13
11342.059356881087,131.728
11345.562737216636,461.047
11349.06526777208,-324.05
11352.566948856567,389.914
11356.067780779093,194.957
11359.56776384851,339.857
11363.1502007606,55.326
11366.648466857394,123.824
11370.145885034064,-23.711
11373.642455598843,513.738
11377.138178859836,-160.708
11380.633055125,152.804
11384.1270847021,136.997
11387.620267898808,216.033
11391.112605022612,-5.269
11394.60409638087,113.286
11398.094742280777,-208.13
11401.584543029392,-300.339
11405.073498933603,345.126
11408.561610300185,-147.535
11412.048877435727,-342.492
11415.5353006467,205.495
11419.020880239405,410.99
11422.505616520008,-395.183
11425.989509794525,-421.528
11429.472560368817,-392.422
11432.954768548592,-531.918
11436.43613463944,-762.935
11439.916658946764,-1008.38
11443.313501961433,-1191.176
11446.79236364179,-1234.23
11450.270384446749,-1060.458
11453.74756468115,-592.774
11457.22390464968,123.824
11460.699404656869,566.429
11464.091344754375,131.728
11467.565185732994,-50.056
11471.038187655771,-700.791
11474.51035082668,-36.884
11477.981675549512,487.392
11481.369541233144,142.266
11484.839209915755,57.96
11488.30804105362,576.967
11491.693473394258,-334.588
11495.16065027576,86.94
11498.626990514544,513.738
11502.092494413417,-901.017
11505.474679896604,-563.794
11508.938531918346,608.582
11512.401548500471,389.914
11515.78130675673,-5.269
11519.242673239612,123.824
11522.620821260369,-316.146
11526.080538823127,-200.226
11529.5394224415,-250.282
11532.915147579475,-271.359
11536.372384051368,-2.635
11539.74650183491,318.781
11543.202092336618,79.037
11546.574603913472,134.362
11550.028549620163,-131.728
11553.399456136987,118.555
11556.85175822272,86.94
11560.221060825072,-189.688
11563.67172046279,65.864
11567.039420295116,890.479
11570.488438656655,3575.088
11573.854536862347,555.891
11577.301915118398,23.711
11580.666412839755,10.538
11584.030120381583,698.156
11587.475050538147,-197.591
11590.837159300165,-181.784
11594.280452266124,-216.033
11597.64096338792,15.807
11601.000685734118,-503.2
11604.441534950183,39.518
11607.79966135666,-447.874
11611.156999826935,5.269
11614.59540789372,471.585
11617.951152122365,273.993
11621.306109253032,36.884
11624.66027956261,-62.581
11628.09544335218,-42.039
11631.44802167594,58.735
11634.799814015252,199.971
11638.15082064648,341.896
11641.58274474832,444.744
11644.932161645294,468.737
11648.280793669244,374.106
11651.62864109602,71.133
11654.975704201344,-360.934
11658.403590030808,582.236
11661.749066206958,-463.681
11665.093758894744,-152.804
11668.43766836938,-698.156
11671.780794905935,187.053
11675.12313877933,150.169
11678.4647002644,-90.839
11681.805479635816,-238.25
11685.145477168146,-311.111
11688.484693135812,-328.476
11691.904543291126,-309.388
11695.24217790648,-272.906
11698.579031786354,-238.071
11701.915105204676,-223.937
11705.25039843522,-271.359
11708.584911751648,-360.934
11711.918645427471,94.844
11715.251599736104,-55.326
11718.502511651865,100.113
11721.83392703817,-2.635
11725.164563870054,350.395
11728.4944224204,152.804
11731.823502961994,374.106
11735.15180576744,223.937
11738.479331109273,-129.093
11741.806079259855,165.977
11745.132050491462,134.362
11748.457245076206,-79.037
11751.70058915004,144.9
11755.024250183047,50.056
11758.34713537819,5.269
11761.669245007088,-540.083
11764.990579341233,-118.555
11768.230158619372,126.459
11771.549962071174,-540.083
11774.86899103535,239.744
11778.187245782876,-89.575
11781.423821624776,71.133
11784.740547618409,421.528
11788.05650020102,-255.552
11791.371679643096,-81.671
11794.605256223578,-18.442
11797.91890903626,524.276
11801.231789512534,2.635
11804.46312397414,-408.356
11807.774479408556,-5.269
11811.085063309589,-218.668
11814.314157983485,173.88
11817.623218427994,21.076
11820.850827315822,102.748
11824.158365355152,-392.548
11827.4651331948,305.608
11830.690506166697,52.691
11833.995753182851,-76.402
11837.219642936305,-273.993
11840.52337017791,34.249
11843.745777735792,226.572
11847.047986250807,144.9
11850.26891263506,463.681
11853.569603470474,57.96
11856.789049702087,310.877
11860.088223903953,136.997
11863.30619100298,-5.269
11866.603849616356,231.841
11869.820338601929,358.299
11873.11648267094,7.904
11876.331494561222,-26.346
11879.545777396996,197.591
11882.839660941268,479.489
11886.052468201013,-68.498
11889.26454715598,408.356
11892.55617250015,42.153
11895.766777396242,347.761
11899.056892350098,10.538
11902.26602420178,537.449
11905.474428998024,-52.691
11908.682106985869,474.219
11911.969222890988,1032.745
11915.17542984806,-424.163
11918.380910743392,92.209
11921.66577540321,-152.804
11924.869786778698,-468.95
11928.07307283808,208.13
11931.27563382762,28.98
11934.477469993468,-118.555
11937.758600089848,798.269
11940.95896924119,221.302
11944.158614312782,5.269
11947.35753555032,558.525
11950.55573319941,-216.033
11953.753207505528,-223.937
11957.029868231695,-15.807
11960.225878519712,-57.96
11963.42116620667,845.691
11966.615731537608,36.884
11969.809574757444,-368.837
11973.002696111003,-447.874
11976.195095842992,392.548
11979.386774197992,-210.764
11982.577731420495,79.037
11985.767967754866,-144.9
11988.957483445382,18.442
11992.146278736183,289.801
11995.334353871312,692.887
11998.521709094712,65.864
12001.708344650193,108.017
12004.894260781464,-218.668
12008.079457732136,321.415
12011.2639357457,250.282
12014.44769506553,113.286
12017.630735934905,-142.266
12020.81305859698,97.478
12023.994663294816,279.263
12027.175550271351,-866.768
12030.27622427429,458.412
12033.455694464548,334.588
12036.634447655608,-221.302
12039.812484089987,68.498
12042.989804010074,-537.449
12046.166407658158,-187.053
12049.26290681064,-445.239
12052.4380965329,289.801
12055.612570703324,-271.359
12058.786329563762,-1001.13
12061.880055974125,-131.728
12065.052402807443,-313.512
12068.224035049663,139.631
12071.394952942192,461.047
12074.485910333004,439.97
12077.655418093736,-10.538
12080.824212222367,187.053
12083.913099633974,389.914
12087.080485047096,-168.611
12090.247157544738,537.449
12093.333977055809,18.442
