Raman shift,Intensity
760.37825,606.76707
762.05415,608.97318
763.73006,611.17929
765.40596,614.48845
767.08186,618.90067
768.75777,622.20984
770.43367,625.519
772.10958,627.72511
773.78548,632.13734
775.46139,634.34345
777.13729,636.54956
778.8132,637.65261
780.4891,638.75567
782.16501,637.65261
783.84091,636.54956
785.51682,635.4465
787.19272,632.13734
788.86863,631.03428
790.54453,627.72511
792.22044,625.519
793.89634,623.31289
795.57225,621.10678
797.24815,617.79762
798.92406,616.69456
800.59996,614.48845
802.27587,613.3854
803.95177,613.3854
805.62768,614.48845
807.30358,615.59151
808.97949,616.69456
810.65539,616.69456
812.3313,617.79762
814.0072,618.90067
815.68311,620.00373
817.35901,621.10678
819.03492,621.10678
820.71082,622.20984
822.38673,622.20984
824.06263,622.20984
825.73854,622.20984
827.41444,621.10678
829.09035,620.00373
830.76625,620.00373
832.44216,618.90067
834.11806,618.90067
835.79397,617.79762
837.46987,617.79762
839.14578,617.79762
840.82168,618.90067
842.49759,621.10678
844.17349,623.31289
845.8494,624.41595
847.5253,628.82817
849.20121,632.13734
850.87711,635.4465
852.55301,639.85872
854.22892,644.27094
855.90482,647.58011
857.58073,651.99233
859.25663,656.40455
860.93254,659.71371
862.60844,661.91982
864.28435,665.22899
865.96025,668.53816
867.63616,671.84732
869.31206,674.05343
870.98797,675.15649
872.66387,676.25954
874.33978,677.3626
876.01568,676.25954
877.69159,675.15649
879.36749,674.05343
881.0434,674.05343
882.7193,672.95038
884.39521,671.84732
886.07111,670.74427
887.74702,670.74427
889.42292,669.64121
891.09883,668.53816
892.77473,668.53816
894.45064,667.4351
896.12654,667.4351
897.80245,667.4351
899.47835,667.4351
901.15426,667.4351
902.83016,668.53816
904.50607,670.74427
906.18197,671.84732
907.85788,674.05343
909.53378,676.25954
911.20969,678.46565
912.88559,681.77482
914.5615,683.98093
916.2374,687.29009
917.91331,690.59926
919.58921,692.80537
921.26512,695.01148
922.94102,697.21759
924.61693,698.32065
926.29283,699.4237
927.96874,699.4237
929.64464,699.4237
931.32055,698.32065
932.99645,698.32065
934.67235,697.21759
936.34826,697.21759
938.02416,696.11453
939.70007,695.01148
941.37597,695.01148
943.05188,693.90842
944.72778,693.90842
946.40369,692.80537
948.07959,692.80537
949.7555,691.70231
951.4314,691.70231
953.10731,690.59926
954.78321,690.59926
956.45912,689.4962
958.13502,689.4962
959.81093,689.4962
961.48683,688.39315
963.16274,687.29009
964.83864,686.18704
966.51455,683.98093
968.19045,681.77482
969.86636,679.56871
971.54226,678.46565
973.21817,677.3626
974.89407,675.15649
976.56998,675.15649
978.24588,675.15649
979.92179,676.25954
981.59769,676.25954
983.2736,676.25954
984.9495,677.3626
986.62541,677.3626
988.30131,678.46565
989.97722,678.46565
991.65312,678.46565
993.32903,677.3626
995.00493,676.25954
996.68084,675.15649
998.35674,671.84732
1000.03265,669.64121
1001.70855,668.53816
1003.38446,667.4351
1005.06036,665.22899
1006.73627,664.12594
1008.41217,664.12594
1010.08808,663.02288
1011.76398,664.12594
1013.43989,664.12594
1015.11579,664.12594
1016.79169,665.22899
1018.4676,666.33205
1020.1435,666.33205
1021.81941,667.4351
1023.49531,668.53816
1025.17122,668.53816
1026.84712,668.53816
1028.52303,668.53816
1030.19893,669.64121
1031.87484,669.64121
1033.55074,671.84732
1035.22665,672.95038
1036.90255,675.15649
1038.57846,677.3626
1040.25436,680.67176
1041.93027,682.87787
1043.60617,686.18704
1045.28208,689.4962
1046.95798,692.80537
1048.63389,696.11453
1050.30979,698.32065
1051.9857,700.52676
1053.6616,703.83592
1055.33751,702.73287
1057.01341,701.62981
1058.68932,699.4237
1060.36522,696.11453
1062.04113,692.80537
1063.71703,688.39315
1065.39294,683.98093
1067.06884,680.67176
1068.74475,675.15649
1070.42065,670.74427
1072.09656,667.4351
1073.77246,664.12594
1075.44837,661.91982
1077.12427,661.91982
1078.80018,664.12594
1080.47608,666.33205
1082.15199,667.4351
1083.82789,669.64121
1085.5038,671.84732
1087.1797,674.05343
1088.85561,675.15649
1090.53151,678.46565
1092.20742,681.77482
1093.88332,685.08398
1095.55923,689.4962
1097.23513,692.80537
1098.91104,697.21759
1100.58694,700.52676
1102.26284,703.83592
1103.93875,706.04203
1105.61465,708.24814
1107.29056,709.3512
1108.96646,709.3512
1110.64237,708.24814
1112.31827,708.24814
1113.99418,708.24814
1115.67008,707.14509
1117.34599,706.04203
1119.02189,706.04203
1120.6978,703.83592
1122.3737,700.52676
1124.04961,697.21759
1125.72551,693.90842
1127.40142,690.59926
1129.07732,686.18704
1130.75323,681.77482
1132.42913,678.46565
1134.10504,676.25954
1135.78094,675.15649
1137.45685,675.15649
1139.13275,676.25954
1140.80866,677.3626
1142.48456,678.46565
1144.16047,679.56871
1145.83637,680.67176
1147.51228,680.67176
1149.18818,681.77482
1150.86409,682.87787
1152.53999,685.08398
1154.2159,688.39315
1155.8918,691.70231
1157.56771,695.01148
1159.24361,699.4237
1160.91952,702.73287
1162.59542,704.93898
1164.27133,707.14509
1165.94723,707.14509
1167.62314,704.93898
1169.29904,702.73287
1170.97495,700.52676
1172.65085,698.32065
1174.32676,695.01148
1176.00266,692.80537
1177.67857,690.59926
1179.35447,688.39315
1181.03038,683.98093
1182.70628,679.56871
1184.38218,675.15649
1186.05809,671.84732
1187.73399,666.33205
1189.4099,661.91982
1191.0858,657.5076
1192.76171,655.30149
1194.43761,651.99233
1196.11352,650.88927
1197.78942,651.99233
1199.46533,653.09538
1201.14123,655.30149
1202.81714,656.40455
1204.49304,657.5076
1206.16895,658.61066
1207.84485,660.81677
1209.52076,661.91982
1211.19666,663.02288
1212.87257,664.12594
1214.54847,666.33205
1216.22438,667.4351
1217.90028,669.64121
1219.57619,670.74427
1221.25209,671.84732
1222.928,670.74427
1224.6039,669.64121
1226.27981,667.4351
1227.95571,665.22899
1229.63162,663.02288
1231.30752,660.81677
1232.98343,659.71371
1234.65933,657.5076
1236.33524,656.40455
1238.01114,655.30149
1239.68705,653.09538
1241.36295,650.88927
1243.03886,648.68316
1244.71476,647.58011
1246.39067,645.374
1248.06657,643.16789
1249.74248,640.96178
1251.41838,639.85872
1253.09429,638.75567
1254.77019,638.75567
1256.4461,638.75567
1258.122,639.85872
1259.79791,642.06483
1261.47381,644.27094
1263.14972,646.47705
1264.82562,649.78622
1266.50152,653.09538
1268.17743,657.5076
1269.85333,659.71371
1271.52924,663.02288
1273.20514,666.33205
1274.88105,668.53816
1276.55695,669.64121
1278.23286,670.74427
1279.90876,671.84732
1281.58467,672.95038
1283.26057,672.95038
1284.93648,672.95038
1286.61238,671.84732
1288.28829,671.84732
1289.96419,670.74427
1291.6401,670.74427
1293.316,668.53816
1294.99191,667.4351
1296.66781,666.33205
1298.34372,665.22899
1300.01962,664.12594
1301.69553,663.02288
1303.37143,661.91982
1305.04734,661.91982
1306.72324,661.91982
1308.39915,661.91982
1310.07505,661.91982
1311.75096,663.02288
1313.42686,663.02288
1315.10277,664.12594
1316.77867,665.22899
1318.45458,666.33205
1320.13048,667.4351
1321.80639,668.53816
1323.48229,669.64121
1325.1582,670.74427
1326.8341,671.84732
1328.51001,674.05343
1330.18591,675.15649
1331.86182,675.15649
1333.53772,676.25954
1335.21363,677.3626
1336.88953,678.46565
1338.56544,678.46565
1340.24134,678.46565
1341.91725,678.46565
1343.59315,677.3626
1345.26906,676.25954
1346.94496,675.15649
1348.62087,675.15649
1350.29677,675.15649
1351.97267,675.15649
1353.64858,675.15649
1355.32448,676.25954
1357.00039,677.3626
1358.67629,678.46565
1360.3522,678.46565
1362.0281,677.3626
1363.70401,677.3626
1365.37991,676.25954
1367.05582,675.15649
1368.73172,675.15649
1370.40763,674.05343
1372.08353,675.15649
1373.75944,675.15649
1375.43534,676.25954
1377.11125,676.25954
1378.78715,676.25954
1380.46306,677.3626
1382.13896,676.25954
1383.81487,676.25954
1385.49077,676.25954
1387.16668,676.25954
1388.84258,676.25954
1390.51849,675.15649
1392.19439,675.15649
1393.8703,674.05343
1395.5462,672.95038
1397.22211,671.84732
1398.89801,672.95038
1400.57392,674.05343
1402.24982,674.05343
1403.92573,676.25954
1405.60163,677.3626
1407.27754,678.46565
1408.95344,679.56871
1410.62935,678.46565
1412.30525,677.3626
1413.98116,676.25954
1415.65706,674.05343
1417.33297,672.95038
1419.00887,671.84732
1420.68478,670.74427
1422.36068,668.53816
1424.03659,667.4351
1425.71249,666.33205
1427.3884,665.22899
1429.0643,665.22899
1430.74021,664.12594
1432.41611,664.12594
1434.09201,665.22899
1435.76792,667.4351
1437.44382,668.53816
1439.11973,669.64121
1440.79563,671.84732
1442.47154,675.15649
1444.14744,677.3626
1445.82335,679.56871
1447.49925,681.77482
1449.17516,683.98093
1450.85106,686.18704
1452.52697,687.29009
1454.20287,688.39315
1455.87878,687.29009
1457.55468,686.18704
1459.23059,683.98093
1460.90649,681.77482
1462.5824,678.46565
1464.2583,675.15649
1465.93421,672.95038
1467.61011,668.53816
1469.28602,666.33205
1470.96192,663.02288
1472.63783,660.81677
1474.31373,659.71371
1475.98964,661.91982
1477.66554,665.22899
1479.34145,668.53816
1481.01735,674.05343
1482.69326,680.67176
1484.36916,686.18704
1486.04507,691.70231
1487.72097,698.32065
1489.39688,703.83592
1491.07278,708.24814
1492.74869,712.66036
1494.42459,714.86647
1496.1005,717.07258
1497.7764,720.38175
1499.45231,721.4848
1501.12821,720.38175
1502.80412,717.07258
1504.48002,712.66036
1506.15593,708.24814
1507.83183,703.83592
1509.50774,699.4237
1511.18364,692.80537
1512.85955,688.39315
1514.53545,685.08398
1516.21135,676.25954
1516.21135,675.15649
1516.21135,674.05343
1516.21135,672.95038
1516.21135,671.84732
1516.21135,685.08398
1517.88726,682.87787
1517.88726,693.90842
1517.88726,689.4962
1517.88726,677.3626
1517.88726,683.98093
1519.56316,679.56871
1519.56316,678.46565
1519.56316,692.80537
1519.56316,681.77482
1519.56316,680.67176
1519.56316,685.08398
1519.56316,695.01148
1519.56316,693.90842
1521.23907,686.18704
1521.23907,687.29009
1521.23907,701.62981
1521.23907,688.39315
1521.23907,691.70231
1521.23907,701.62981
1521.23907,718.17564
1521.23907,719.27869
1521.23907,696.11453
1522.91497,706.04203
1522.91497,715.96953
1522.91497,698.32065
1522.91497,700.52676
1522.91497,689.4962
1522.91497,702.73287
1522.91497,690.59926
1522.91497,717.07258
1522.91497,721.4848
1522.91497,720.38175
1522.91497,697.21759
1524.59088,722.58786
1524.59088,703.83592
1524.59088,699.4237
1524.59088,712.66036
1524.59088,708.24814
1524.59088,714.86647
1526.26678,713.76342
1526.26678,704.93898
1526.26678,706.04203
1526.26678,710.45425
1526.26678,711.55731
1526.26678,709.3512
1526.26678,723.69091
1526.26678,707.14509
1526.26678,731.4123
1526.26678,730.30924
1526.26678,728.10313
1527.94269,729.20619
1527.94269,727.00008
1527.94269,733.61841
1527.94269,732.51536
1527.94269,724.79397
1529.61859,734.72147
1529.61859,735.82452
1529.61859,725.89702
1531.2945,738.03063
1531.2945,736.92758
1531.2945,740.23674
1531.2945,739.13369
1531.2945,742.44285
1531.2945,743.54591
1532.9704,750.16424
1532.9704,744.64896
1532.9704,745.75202
1532.9704,746.85507
1532.9704,749.06118
1532.9704,741.3398
1534.64631,756.78257
1534.64631,751.26729
1534.64631,747.95813
1534.64631,752.37035
1534.64631,754.57646
1534.64631,755.67951
1534.64631,753.4734
1536.32221,761.19479
1536.32221,758.98868
1536.32221,760.09173
1536.32221,757.88562
1537.99812,762.29784
1539.67402,763.4009
1541.34993,773.3284
1541.34993,764.50395
1541.34993,774.43145
1543.02583,775.53451
1543.02583,765.60701
1543.02583,771.12229
1543.02583,772.22534
1544.70174,775.53451
1544.70174,770.01923
1544.70174,766.71007
1546.37764,767.81312
1546.37764,768.91618
1546.37764,775.53451
1546.37764,776.63756
1546.37764,777.74062
1548.05355,777.74062
1548.05355,778.84367
1549.72945,778.84367
1551.40536,779.94673
1551.40536,781.04978
1551.40536,782.15284
1567.01815,789.12339
1581.57165,790.97728
1581.57165,789.87422
1583.24755,788.77117
1584.92346,788.77117
1586.59936,788.77117
1588.27527,787.66811
1589.95117,786.56506
1591.62708,785.462
1593.30298,784.35895
1593.30298,785.462
1594.97889,784.35895
1594.97889,783.25589
1596.65479,783.25589
1598.3307,783.25589
1600.0066,783.25589
1601.6825,783.25589
1603.35841,782.15284
1603.35841,783.25589
1605.03431,781.04978
1605.03431,782.15284
1606.71022,778.84367
1606.71022,777.74062
1606.71022,779.94673
1608.38612,775.53451
1608.38612,774.43145
1608.38612,776.63756
1610.06203,773.3284
1610.06203,761.19479
1610.06203,762.29784
1610.06203,760.09173
1610.06203,764.50395
1610.06203,765.60701
1610.06203,763.4009
1611.73793,766.71007
1611.73793,768.91618
1611.73793,770.01923
1611.73793,771.12229
1611.73793,772.22534
1611.73793,758.98868
1611.73793,767.81312
1613.41384,760.09173
1615.08974,761.19479
1616.76565,762.29784
1618.44155,762.29784
1620.11746,761.19479
1620.11746,762.29784
1621.79336,761.19479
1623.46927,760.09173
1623.46927,761.19479
1625.14517,758.98868
1625.14517,760.09173
1626.82108,758.98868
1626.82108,757.88562
1628.49698,755.67951
1628.49698,754.57646
1628.49698,753.4734
1628.49698,756.78257
1628.49698,751.26729
1628.49698,750.16424
1628.49698,749.06118
1628.49698,752.37035
1630.17289,747.95813
1631.84879,747.95813
1633.5247,746.85507
1635.2006,747.95813
1636.87651,749.06118
1638.55241,750.16424
1640.22832,751.26729
1641.90422,750.16424
1641.90422,751.26729
1643.58013,749.06118
1643.58013,750.16424
1645.25603,749.06118
1645.25603,747.95813
1646.93194,745.75202
1646.93194,747.95813
1646.93194,746.85507
1646.93194,744.64896
1648.60784,743.54591
1648.60784,742.44285
1648.60784,741.3398
1648.60784,740.23674
1648.60784,739.13369
1648.60784,738.03063
1650.28375,736.92758
1651.95965,735.82452
1651.95965,736.92758
1651.95965,734.72147
1653.63556,734.72147
1653.63556,733.61841
1655.31146,733.61841
1655.31146,732.51536
1655.31146,731.4123
1656.98737,731.4123
1656.98737,730.30924
1658.66327,730.30924
1660.33918,730.30924
1662.01508,730.30924
1663.69099,730.30924
1665.36689,730.30924
1665.36689,729.20619
1665.36689,728.10313
1665.36689,727.00008
1665.36689,725.89702
1665.36689,724.79397
1667.0428,724.79397
1668.7187,724.79397
1668.7187,723.69091
1670.39461,722.58786
1670.39461,721.4848
1670.39461,720.38175
1672.07051,720.38175
1672.07051,719.27869
1672.07051,718.17564
1673.74642,718.17564
1673.74642,717.07258
1675.42232,717.07258
1675.42232,715.96953
1677.09823,714.86647
1677.09823,713.76342
1678.77413,713.76342
1678.77413,712.66036
1678.77413,711.55731
1678.77413,707.14509
1680.45004,711.55731
1680.45004,710.45425
1680.45004,707.14509
1682.12594,706.04203
1682.12594,706.04203
1682.12594,707.14509
1682.12594,708.24814
1682.12594,709.3512
1682.12594,710.45425
1682.12594,704.93898
1682.12594,703.83592
1683.80184,702.73287
1683.80184,706.04203
1685.47775,702.73287
1685.47775,704.93898
1687.15365,702.73287
1687.15365,704.93898
1688.82956,703.83592
1688.82956,703.83592
1690.50546,703.83592
1690.50546,704.93898
1692.18137,706.04203
1692.18137,703.83592
1693.85727,704.93898
1693.85727,707.14509
1695.53318,706.04203
1695.53318,704.93898
1697.20908,704.93898
1697.20908,706.04203
1698.88499,704.93898
1698.88499,704.93898
1700.56089,704.93898
1700.56089,703.83592
1700.56089,703.83592
1700.56089,702.73287
1700.56089,700.52676
1700.56089,701.62981
1702.2368,700.52676
1702.2368,703.83592
1703.9127,700.52676
1703.9127,698.32065
1703.9127,699.4237
1703.9127,701.62981
1705.58861,698.32065
1705.58861,700.52676
1705.58861,696.11453
1705.58861,695.01148
1707.26451,698.32065
1707.26451,697.21759
1707.26451,693.90842
1707.26451,697.21759
1708.94042,696.11453
1708.94042,692.80537
1708.94042,691.70231
1708.94042,690.59926
1708.94042,689.4962
1708.94042,688.39315
1708.94042,687.29009
1708.94042,698.32065
1710.61632,686.18704
1710.61632,692.80537
1710.61632,683.98093
1710.61632,685.08398
1712.29223,682.87787
1712.29223,689.4962
1712.29223,681.77482
1713.96813,687.29009
1713.96813,681.77482
1715.64404,683.98093
1715.64404,681.77482
1717.31994,680.67176
1717.31994,681.77482
1717.31994,676.25954
1717.31994,677.3626
1717.31994,678.46565
1717.31994,679.56871
1717.31994,681.77482
1718.99585,676.25954
1718.99585,679.56871
1718.99585,675.15649
1720.67175,677.3626
1720.67175,674.05343
1722.34766,675.15649
1722.34766,674.05343
1724.02356,674.05343
1724.02356,675.15649
1724.02356,672.95038
1724.02356,671.84732
1725.69947,669.64121
1725.69947,674.05343
1725.69947,670.74427
1727.37537,675.15649
1729.05128,676.25954
1730.72718,678.46565
1732.40309,679.56871
1734.07899,680.67176
1735.7549,680.67176
1737.4308,679.56871
1739.10671,678.46565
1740.78261,677.3626
1742.45852,676.25954
1744.13442,675.15649
1745.81033,674.05343
1747.48623,672.95038
1749.16214,671.84732
1750.83804,671.84732
1752.51395,671.84732
1754.18985,671.84732
1755.86576,672.95038
1757.54166,674.05343
1759.21757,675.15649
1760.89347,676.25954
1762.56938,677.3626
1764.24528,679.56871
1765.92118,679.56871
1767.59709,680.67176
1769.27299,681.77482
1770.9489,681.77482
1772.6248,680.67176
1774.30071,679.56871
1775.97661,677.3626
1777.65252,675.15649
1779.32842,672.95038
1781.00433,670.74427
1782.68023,668.53816
1784.35614,666.33205
1786.03204,664.12594
1787.70795,661.91982
1789.38385,659.71371
1791.05976,658.61066
1792.73566,657.5076
1794.41157,655.30149
1796.08747,654.19844
1797.76338,653.09538
1799.43928,653.09538
1801.11519,651.99233
1802.79109,651.99233
1804.467,650.88927
1806.1429,650.88927
1807.81881,650.88927
1809.49471,650.88927
1811.17062,650.88927
1812.84652,651.99233
1814.52243,653.09538
1816.19833,654.19844
1817.87424,655.30149
1819.55014,658.61066
1821.22605,659.71371
1822.90195,661.91982
1824.57786,665.22899
1826.25376,667.4351
1827.92967,669.64121
1829.60557,671.84732
1831.28148,674.05343
1832.95738,676.25954
1834.63329,676.25954
1836.30919,677.3626
1837.9851,678.46565
1839.661,678.46565
1841.33691,677.3626
1843.01281,675.15649
1844.68872,674.05343
1844.68872,674.05343
1846.36462,671.84732
1846.36462,671.84732
1848.04052,669.64121
1848.04052,669.64121
1849.71643,667.4351
1849.71643,667.4351
1851.39233,665.22899
1851.39233,665.22899
1853.06824,663.02288
1853.06824,663.02288
1854.74414,660.81677
1854.74414,660.81677
1856.42005,659.71371
1856.42005,659.71371
1858.09595,656.40455
1858.09595,656.40455
1859.77186,655.30149
1859.77186,655.30149
1861.44776,653.09538
1861.44776,653.09538
1863.12367,651.99233
1863.12367,651.99233
1864.79957,650.88927
1864.79957,650.88927
1866.47548,650.88927
1866.47548,650.88927
1868.15138,651.99233
1868.15138,651.99233
1869.82729,653.09538
1869.82729,653.09538
1871.50319,655.30149
1871.50319,655.30149
1873.1791,657.5076
1873.1791,657.5076
1874.855,658.61066
1874.855,658.61066
1876.53091,660.81677
1876.53091,660.81677
1878.20681,661.91982
1878.20681,661.91982
1879.88272,663.02288
1879.88272,663.02288
1881.55862,664.12594
1881.55862,664.12594
1883.23453,664.12594
1883.23453,664.12594
1884.91043,664.12594
1884.91043,664.12594
1886.58634,663.02288
1886.58634,663.02288
1888.26224,660.81677
1888.26224,660.81677
1889.93815,658.61066
1889.93815,658.61066
1891.61405,656.40455
1891.61405,656.40455
1893.28996,655.30149
1893.28996,655.30149
1894.96586,653.09538
1894.96586,653.09538
1896.64177,653.09538
1896.64177,647.58011
1896.64177,653.09538
1896.64177,648.68316
1896.64177,649.78622
1898.31767,653.09538
1898.31767,654.19844
1898.31767,651.99233
1898.31767,654.19844
1898.31767,650.88927
1898.31767,654.19844
1899.99358,656.40455
1899.99358,656.40455
1899.99358,654.19844
1901.66948,658.61066
1901.66948,658.61066
1901.66948,655.30149
1901.66948,654.19844
1903.34539,656.40455
1903.34539,658.61066
1903.34539,657.5076
1903.34539,659.71371
1903.34539,663.02288
1903.34539,660.81677
1903.34539,661.91982
1903.34539,660.81677
1903.34539,664.12594
1903.34539,660.81677
1905.02129,663.02288
1905.02129,667.4351
1905.02129,663.02288
1905.02129,668.53816
1905.02129,669.64121
1905.02129,664.12594
1905.02129,665.22899
1905.02129,666.33205
1906.6972,664.12594
1906.6972,665.22899
1906.6972,665.22899
1906.6972,671.84732
1906.6972,670.74427
1908.3731,668.53816
1908.3731,672.95038
1908.3731,668.53816
1910.04901,674.05343
1910.04901,670.74427
1910.04901,670.74427
1911.72491,672.95038
1911.72491,674.05343
1911.72491,672.95038
1913.40082,674.05343
1913.40082,674.05343
1913.40082,674.05343
1915.07672,674.05343
1915.07672,676.25954
1915.07672,676.25954
1916.75263,681.77482
1916.75263,678.46565
1916.75263,677.3626
1916.75263,676.25954
1916.75263,675.15649
1916.75263,674.05343
1916.75263,679.56871
1916.75263,678.46565
1916.75263,680.67176
1916.75263,678.46565
1918.42853,680.67176
1918.42853,680.67176
1918.42853,682.87787
1918.42853,681.77482
1920.10444,682.87787
1920.10444,681.77482
1920.10444,681.77482
1921.78034,683.98093
1921.78034,681.77482
1921.78034,682.87787
1921.78034,681.77482
1923.45625,682.87787
1923.45625,683.98093
1923.45625,682.87787
1925.13215,682.87787
1925.13215,686.18704
1925.13215,682.87787
1925.13215,685.08398
1926.80806,681.77482
1926.80806,681.77482
1928.48396,680.67176
1928.48396,680.67176
1930.15987,679.56871
1930.15987,679.56871
1931.83577,678.46565
1931.83577,678.46565
1933.51167,677.3626
1933.51167,677.3626
1935.18758,677.3626
1935.18758,677.3626
1936.86348,676.25954
1936.86348,676.25954
1938.53939,675.15649
1938.53939,675.15649
1940.21529,672.95038
1940.21529,672.95038
1941.8912,671.84732
1941.8912,671.84732
1943.5671,669.64121
1943.5671,669.64121
1945.24301,667.4351
1945.24301,667.4351
1946.91891,664.12594
1946.91891,664.12594
1948.59482,661.91982
1948.59482,661.91982
1950.27072,658.61066
1950.27072,658.61066
1951.94663,657.5076
1951.94663,657.5076
1953.62253,656.40455
1953.62253,656.40455
1955.29844,655.30149
1955.29844,655.30149
1956.97434,656.40455
1956.97434,656.40455
1958.65025,656.40455
1958.65025,656.40455
1960.32615,657.5076
1960.32615,657.5076
1962.00206,657.5076
1962.00206,657.5076
1963.67796,658.61066
1963.67796,658.61066
1965.35387,659.71371
1965.35387,659.71371
1967.02977,660.81677
1967.02977,660.81677
1968.70568,661.91982
1968.70568,661.91982
1970.38158,661.91982
1970.38158,661.91982
1972.05749,660.81677
1972.05749,660.81677
1973.73339,659.71371
1973.73339,659.71371
1975.4093,658.61066
1975.4093,658.61066
1977.0852,656.40455
1977.0852,656.40455
1978.76111,655.30149
1978.76111,655.30149
1980.43701,653.09538
1980.43701,653.09538
1982.11292,650.88927
1982.11292,650.88927
1983.78882,649.78622
1983.78882,649.78622
1985.46473,648.68316
1985.46473,647.58011
1987.14063,647.58011
1987.14063,648.68316
1988.81654,650.88927
1988.81654,649.78622
1990.49244,651.99233
1990.49244,653.09538
1992.16835,656.40455
1992.16835,655.30149
1993.84425,659.71371
1993.84425,659.71371
1995.52016,663.02288
1995.52016,663.02288
1997.19606,666.33205
1997.19606,666.33205
1998.87197,668.53816
1998.87197,668.53816
2000.54787,671.84732
2002.22378,674.05343
2003.89968,675.15649
2005.57559,676.25954
2007.25149,677.3626
2008.9274,677.3626
2010.6033,678.46565
2012.27921,678.46565
2013.95511,678.46565
2015.63101,678.46565
2017.30692,678.46565
2018.98282,678.46565
2020.65873,677.3626
2022.33463,677.3626
2024.01054,677.3626
2025.68644,678.46565
2027.36235,679.56871
2029.03825,680.67176
2030.71416,682.87787
2032.39006,686.18704
2034.06597,688.39315
2035.74187,690.59926
2037.41778,692.80537
2039.09368,693.90842
2040.76959,696.11453
2042.44549,697.21759
2044.1214,699.4237
2045.7973,699.4237
2047.47321,700.52676
2049.14911,701.62981
2050.82502,702.73287
2052.50092,703.83592
2064.23226,703.83592
2065.90816,702.73287
2067.58407,702.73287
2069.25997,700.52676
2070.93588,697.21759
2072.61178,695.01148
2074.28769,691.70231
2075.96359,688.39315
2077.6395,683.98093
2079.3154,679.56871
2080.99131,676.25954
2082.66721,672.95038
2084.34312,668.53816
2086.01902,665.22899
2087.69493,663.02288
2089.37083,661.91982
2091.04674,659.71371
2092.72264,658.61066
2094.39855,657.5076
2096.07445,656.40455
2097.75035,656.40455
2099.42626,658.61066
2101.10216,660.81677
2102.77807,663.02288
2104.45397,666.33205
2106.12988,669.64121
2107.80578,672.95038
2109.48169,676.25954
2111.15759,678.46565
2112.8335,681.77482
2114.5094,683.98093
2116.18531,686.18704
2117.86121,687.29009
2119.53712,689.4962
2121.21302,690.59926
2122.88893,692.80537
2124.56483,695.01148
2126.24074,696.11453
2127.91664,697.21759
2129.59255,698.32065
2131.26845,698.32065
2132.94436,698.32065
2134.62026,698.32065
2136.29617,697.21759
2137.97207,696.11453
2139.64798,695.01148
2141.32388,693.90842
2142.99979,691.70231
2144.67569,689.4962
2146.3516,687.29009
2148.0275,683.98093
2149.70341,681.77482
2151.37931,678.46565
2153.05522,677.3626
2154.73112,675.15649
2156.40703,674.05343
2158.08293,674.05343
2159.75884,676.25954
2161.43474,677.3626
2163.11065,678.46565
2164.78655,679.56871
2166.46246,680.67176
2168.13836,680.67176
2169.81427,679.56871
2171.49017,680.67176
2173.16608,680.67176
2174.84198,681.77482
2176.51789,682.87787
2178.19379,683.98093
2179.8697,686.18704
2181.5456,687.29009
2183.2215,688.39315
2184.89741,689.4962
2186.57331,689.4962
2188.24922,689.4962
2189.92512,688.39315
2191.60103,689.4962
2193.27693,689.4962
2194.95284,690.59926
2196.62874,691.70231
2198.30465,693.90842
2199.98055,693.90842
2201.65646,693.90842
2203.33236,693.90842
2205.00827,691.70231
2206.68417,690.59926
2208.36008,688.39315
2210.03598,687.29009
2211.71189,686.18704
2213.38779,686.18704
2215.0637,687.29009
2216.7396,688.39315
2218.41551,689.4962
2220.09141,690.59926
2221.76732,690.59926
2223.44322,690.59926
2225.11913,690.59926
2226.79503,690.59926
2228.47094,690.59926
2230.14684,690.59926
2231.82275,690.59926
2233.49865,690.59926
2235.17456,689.4962
2236.85046,687.29009
2238.52637,685.08398
2240.20227,682.87787
2241.87818,680.67176
2243.55408,677.3626
2245.22999,675.15649
2246.90589,672.95038
2248.5818,669.64121
2250.2577,670.74427
2251.93361,670.74427
2253.60951,671.84732
2255.28542,672.95038
2256.96132,674.05343
2258.63723,674.05343
2260.31313,674.05343
2261.98904,674.05343
2263.66494,675.15649
2265.34084,675.15649
2267.01675,676.25954
2268.69265,676.25954
2270.36856,676.25954
2272.04446,676.25954
2273.72037,675.15649
2275.39627,672.95038
2277.07218,670.74427
2278.74808,667.4351
2280.42399,664.12594
2282.09989,660.81677
2283.7758,660.81677
2285.4517,661.91982
2287.12761,664.12594
2288.80351,667.4351
2290.47942,671.84732
2292.15532,675.15649
2293.83123,680.67176
2295.50713,683.98093
2297.18304,688.39315
2298.85894,692.80537
2300.53485,695.01148
2300.63767,674.95954
2302.21075,697.21759
2303.88666,699.4237
2305.56256,701.62981
2324.48933,688.27865
2357.01434,688.27865
2389.35781,688.39315
2391.03371,689.4962
2392.70962,689.4962
2394.38552,688.39315
2396.06143,687.29009
2397.73733,686.18704
2399.41324,685.08398
2401.08914,683.98093
2402.76505,683.98093
2404.44095,683.98093
2406.11686,683.98093
2407.79276,685.08398
2409.46867,685.08398
2411.14457,685.08398
2412.82048,685.08398
2414.49638,686.18704
2416.17229,686.18704
2417.84819,687.29009
2419.5241,689.4962
2421.2,691.70231
2422.87591,693.90842
2424.55181,696.11453
2426.22772,697.21759
2427.90362,698.32065
2429.57953,695.01148
2431.25543,691.70231
2432.93133,688.39315
2434.60724,682.87787
2436.28314,677.3626
2437.95905,672.95038
2439.63495,668.53816
2441.31086,664.12594
2442.98676,660.81677
2444.66267,658.61066
2446.33857,656.40455
2448.01448,656.40455
2449.69038,656.40455
2451.36629,658.61066
2453.04219,659.71371
2454.7181,661.91982
2456.394,664.12594
2458.06991,665.22899
2459.74581,667.4351
2461.42172,669.64121
2463.09762,670.74427
2464.77353,671.84732
2466.44943,672.95038
2468.12534,675.15649
2469.80124,676.25954
2471.47715,677.3626
2473.15305,679.56871
2474.82896,681.77482
2476.50486,682.87787
2478.18077,685.08398
2479.85667,687.29009
2481.53258,689.4962
2483.20848,691.70231
2484.88439,693.90842
2486.56029,696.11453
2488.2362,697.21759
2489.9121,697.21759
2491.58801,696.11453
2493.26391,692.80537
2494.93982,690.59926
2496.61572,686.18704
2498.29163,682.87787
2499.96753,679.56871
2501.64344,676.25954
2503.31934,671.84732
2504.99525,669.64121
2506.67115,667.4351
2508.34706,666.33205
2510.02296,665.22899
2511.69887,664.12594
2513.37477,663.02288
2515.05067,664.12594
2516.72658,665.22899
2518.40248,666.33205
2520.07839,668.53816
2521.75429,669.64121
2523.4302,671.84732
2525.1061,674.05343
2526.78201,676.25954
2528.45791,677.3626
2530.13382,678.46565
2531.80972,679.56871
2533.48563,679.56871
2535.16153,679.56871
2536.83744,678.46565
2538.51334,677.3626
2540.18925,676.25954
2541.86515,675.15649
2543.54106,672.95038
2545.21696,670.74427
2546.89287,669.64121
2548.56877,668.53816
2550.24468,667.4351
2551.92058,666.33205
2553.59649,665.22899
2555.27239,665.22899
2556.9483,666.33205
2558.6242,667.4351
2560.30011,668.53816
2561.97601,669.64121
2563.65192,670.74427
2565.32782,671.84732
2567.00373,671.84732
2568.67963,671.84732
2570.35554,670.74427
2572.03144,669.64121
2573.70735,668.53816
2575.38325,666.33205
2577.05916,664.12594
2578.73506,663.02288
2580.41097,660.81677
2582.08687,659.71371
2583.76278,657.5076
2585.43868,656.40455
2587.11459,656.40455
2588.79049,656.40455
2590.4664,658.61066
2592.1423,660.81677
2593.81821,663.02288
2595.49411,666.33205
2597.17001,668.53816
2598.84592,670.74427
2600.52182,674.05343
2602.19773,676.25954
2603.87363,678.46565
2605.54954,680.67176
2607.22544,682.87787
2608.90135,685.08398
2610.57725,687.29009
2612.25316,689.4962
2613.92906,691.70231
2615.60497,692.80537
2617.28087,692.80537
2618.95678,691.70231
2620.63268,690.59926
2622.30859,687.29009
2623.98449,685.08398
2625.6604,682.87787
2627.3363,679.56871
2629.01221,677.3626
2630.68811,674.05343
2632.36402,669.64121
2634.03992,666.33205
2635.71583,663.02288
2637.39173,658.61066
2639.06764,655.30149
2640.74354,653.09538
2642.41945,649.78622
2644.09535,648.68316
2645.77126,647.58011
2647.44716,648.68316
2649.12307,649.78622
2650.79897,651.99233
2652.47488,653.09538
2654.15078,655.30149
2655.82669,656.40455
2657.50259,658.61066
2659.1785,661.91982
2660.8544,665.22899
2662.53031,667.4351
2664.20621,670.74427
2665.88212,674.05343
2667.55802,676.25954
2669.23393,678.46565
2670.90983,680.67176
2672.58574,682.87787
2674.26164,682.87787
2675.93755,682.87787
2677.61345,681.77482
2679.28936,680.67176
2680.96526,679.56871
2682.64116,678.46565
2684.31707,677.3626
2685.99297,676.25954
2687.66888,675.15649
2689.34478,674.05343
2691.02069,674.05343
2692.69659,674.05343
2694.3725,672.95038
2696.0484,672.95038
2697.72431,671.84732
2699.40021,670.74427
2701.07612,669.64121
2702.75202,669.64121
2704.42793,668.53816
2706.10383,667.4351
2707.77974,666.33205
2709.45564,665.22899
2711.13155,664.12594
2712.80745,663.02288
2714.48336,663.02288
2716.15926,663.02288
2717.83517,664.12594
2719.51107,665.22899
2721.18698,666.33205
2722.86288,667.4351
2724.53879,668.53816
2726.21469,669.64121
2727.8906,670.74427
2729.5665,670.74427
2731.24241,670.74427
2732.91831,669.64121
2734.59422,668.53816
2736.27012,666.33205
2737.94603,664.12594
2739.62193,663.02288
2741.29784,663.02288
2742.97374,663.02288
2744.64965,664.12594
2746.32555,665.22899
2748.00146,665.22899
2749.67736,666.33205
2749.67736,667.4351
2749.67736,668.53816
2749.67736,665.22899
2751.35327,665.22899
2751.35327,664.12594
2753.02917,664.12594
2753.02917,661.91982
2754.70508,659.71371
2754.70508,661.91982
2754.70508,654.19844
2754.70508,660.81677
2754.70508,663.02288
2754.70508,659.71371
2756.38098,653.09538
2756.38098,655.30149
2756.38098,655.30149
2756.38098,659.71371
2756.38098,651.99233
2756.38098,650.88927
2758.05689,647.58011
2758.05689,648.68316
2758.05689,649.78622
2758.05689,646.47705
2758.05689,645.374
2758.05689,651.99233
2758.05689,643.16789
2758.05689,642.06483
2758.05689,640.96178
2758.05689,659.71371
2758.05689,656.40455
2759.73279,637.65261
2759.73279,648.68316
2759.73279,639.85872
2759.73279,644.27094
2759.73279,636.54956
2759.73279,658.61066
2759.73279,659.71371
2759.73279,657.5076
2761.4087,632.13734
2761.4087,638.75567
2761.4087,633.24039
2761.4087,635.4465
2761.4087,644.27094
2763.0846,634.34345
2763.0846,640.96178
2763.0846,628.82817
2763.0846,629.93123
2763.0846,631.03428
2764.7605,628.82817
2764.7605,637.65261
2764.7605,627.72511
2766.43641,626.62206
2766.43641,627.72511
2766.43641,633.24039
2766.43641,625.519
2768.11231,624.41595
2768.11231,629.93123
2769.78822,622.20984
2769.78822,626.62206
2769.78822,624.41595
2769.78822,623.31289
2771.46412,621.10678
2771.46412,624.41595
2771.46412,622.20984
2773.14003,620.00373
2773.14003,624.41595
2773.14003,621.10678
2774.81593,626.62206
2774.81593,617.79762
2774.81593,618.90067
2776.49184,629.93123
2778.16774,634.34345
2779.84365,637.65261
2781.51955,642.06483
2783.19546,645.374
2784.87136,649.78622
2786.54727,654.19844
2788.22317,656.40455
2789.89908,658.61066
2791.57498,659.71371
2793.25089,659.71371
2794.92679,658.61066
2796.6027,657.5076
2798.2786,656.40455
2799.95451,656.40455
2801.63041,656.40455
2803.30632,657.5076
2804.98222,659.71371
2806.65813,661.91982
2808.33403,665.22899
2810.00994,667.4351
2811.68584,670.74427
2813.36175,672.95038
2815.03765,676.25954
2816.71356,678.46565
2818.38946,679.56871
2820.06537,678.46565
2821.74127,676.25954
2823.41718,674.05343
2825.09308,669.64121
2826.76899,665.22899
2828.44489,660.81677
2830.1208,655.30149
2831.7967,650.88927
2833.47261,647.58011
2835.14851,644.27094
2836.82442,642.06483
2838.50032,639.85872
2840.17623,640.96178
2841.85213,643.16789
2843.52804,645.374
2845.20394,648.68316
2846.87984,650.88927
2848.55575,653.09538
2850.23165,656.40455
2851.90756,657.5076
2853.58346,659.71371
2855.25937,661.91982
2856.93527,664.12594
2858.61118,664.12594
2860.28708,664.12594
2861.96299,664.12594
2863.63889,661.91982
2865.3148,660.81677
2866.9907,657.5076
2868.66661,655.30149
2870.34251,654.19844
2872.01842,651.99233
2873.69432,649.78622
2875.37023,648.68316
2877.04613,647.58011
2878.72204,646.47705
2880.39794,644.27094
2882.07385,643.16789
2883.74975,640.96178
2885.42566,639.85872
2887.10156,637.65261
2888.77747,636.54956
2888.77747,636.54956
2890.45337,635.4465
2890.45337,635.4465
2892.12928,635.4465
2892.12928,635.4465
2893.80518,635.4465
2893.80518,635.4465
2895.48109,637.65261
2895.48109,637.65261
2897.15699,639.85872
2897.15699,639.85872
2898.8329,642.06483
2898.8329,642.06483
2900.5088,645.374
2900.5088,645.374
2902.18471,647.58011
2902.18471,647.58011
2903.86061,650.88927
2903.86061,650.88927
2905.53652,654.19844
2905.53652,654.19844
2907.21242,656.40455
2907.21242,656.40455
2908.88833,659.71371
2908.88833,659.71371
2910.56423,661.91982
2910.56423,661.91982
2912.24014,664.12594
2912.24014,664.12594
2913.91604,665.22899
2913.91604,665.22899
2915.59195,666.33205
2915.59195,666.33205
2917.26785,667.4351
2917.26785,667.4351
2918.94376,668.53816
2918.94376,668.53816
2920.61966,669.64121
2920.61966,669.64121
2922.29557,669.64121
2922.29557,669.64121
2923.97147,669.64121
2923.97147,669.64121
2925.64738,668.53816
2925.64738,668.53816
2927.32328,667.4351
2927.32328,667.4351
2928.99919,666.33205
2928.99919,666.33205
2930.67509,665.22899
2930.67509,665.22899
2932.35099,664.12594
2932.35099,664.12594
2934.0269,664.12594
2934.0269,664.12594
2935.7028,663.02288
2935.7028,663.02288
2937.37871,663.02288
2937.37871,663.02288
2939.05461,661.91982
2939.05461,661.91982
2940.73052,660.81677
2940.73052,660.81677
2942.40642,658.61066
2942.40642,658.61066
2944.08233,657.5076
2944.08233,657.5076
2945.75823,655.30149
2945.75823,655.30149
2947.43414,654.19844
2947.43414,654.19844
2949.11004,651.99233
2949.11004,651.99233
2950.78595,650.88927
2950.78595,650.88927
2952.46185,650.88927
2952.46185,650.88927
2954.13776,651.99233
2954.13776,651.99233
2955.81366,653.09538
2955.81366,653.09538
2957.48957,653.09538
2957.48957,653.09538
2959.16547,654.19844
2959.16547,654.19844
2960.84138,655.30149
2960.84138,655.30149
2962.51728,655.30149
2962.51728,655.30149
2964.19319,657.5076
2964.19319,657.5076
2965.86909,658.61066
2965.86909,658.61066
2967.545,660.81677
2967.545,660.81677
2969.2209,661.91982
2970.89681,664.12594
2972.57271,666.33205
2974.24862,667.4351
2975.92452,669.64121
2977.60043,670.74427
2979.27633,670.74427
2980.95224,670.74427
2982.62814,669.64121
2984.30405,669.64121
2985.97995,669.64121
2987.65586,669.64121
2989.33176,669.64121
2991.00767,669.64121
2992.68357,670.74427
2994.35948,670.74427
2996.03538,670.74427
2997.71129,671.84732
2999.38719,671.84732
3001.0631,671.84732
3002.739,671.84732
3004.41491,670.74427
3006.09081,669.64121
3007.76672,668.53816
3009.44262,666.33205
3011.11853,665.22899
3012.79443,663.02288
3014.47033,661.91982
3016.14624,660.81677
3017.82214,659.71371
3019.49805,659.71371
3021.17395,660.81677
3022.84986,663.02288
3024.52576,665.22899
3026.20167,668.53816
3027.87757,670.74427
3029.55348,672.95038
3031.22938,676.25954
3032.90529,678.46565
3034.58119,681.77482
3036.2571,683.98093
3037.933,687.29009
3039.60891,689.4962
3041.28481,690.59926
3042.96072,691.70231
3044.63662,692.80537
3046.31253,695.01148
3047.98843,695.01148
3049.66434,695.01148
3051.34024,695.01148
3053.01615,693.90842
3054.69205,692.80537
3056.36796,691.70231
3058.04386,690.59926
3059.71977,689.4962
3061.39567,688.39315
3063.07158,686.18704
3064.74748,685.08398
3066.42339,685.08398
3068.09929,683.98093
3069.7752,683.98093
3071.4511,683.98093
3073.12701,685.08398
3074.80291,685.08398
3076.47882,687.29009
3078.15472,689.4962
3079.83063,691.70231
3081.50653,693.90842
3083.18244,696.11453
3084.85834,698.32065
3086.53425,700.52676
3088.21015,701.62981
3089.88606,703.83592
3091.56196,704.93898
3093.23787,704.93898
3094.91377,704.93898
3096.58967,706.04203
3098.26558,706.04203
3099.94148,706.04203
3101.61739,707.14509
3103.29329,707.14509
3104.9692,708.24814
3106.6451,708.24814
3108.32101,709.3512
3109.99691,710.45425
3111.67282,710.45425
3113.34872,710.45425
3115.02463,710.45425
3116.70053,709.3512
3118.37644,708.24814
3120.05234,707.14509
3121.72825,704.93898
3123.40415,703.83592
3125.08006,702.73287
3126.75596,700.52676
3128.43187,696.11453
3130.10777,692.80537
3131.78368,690.59926
3133.45958,687.29009
3135.13549,685.08398
3136.81139,681.77482
3138.4873,680.67176
3140.1632,679.56871
3141.83911,681.77482
3143.51501,683.98093
3145.19092,686.18704
3146.86682,688.39315
3148.54273,690.59926
3150.21863,693.90842
3151.89454,697.21759
3153.57044,702.73287
3155.24635,708.24814
3156.92225,712.66036
3158.59816,717.07258
3160.27406,722.58786
3161.94997,727.00008
3163.62587,731.4123
3165.30178,735.82452
3166.97768,739.13369
3168.65359,741.3398
3170.32949,742.44285
3172.0054,741.3398
3173.6813,741.3398
3175.35721,740.23674
3177.03311,739.13369
3178.70902,738.03063
3180.38492,738.03063
3182.06082,738.03063
3183.73673,738.03063
3185.41263,739.13369
3187.08854,740.23674
3188.76444,741.3398
3190.44035,741.3398
3192.11625,740.23674
3193.79216,740.23674
3195.46806,740.23674
3197.14397,739.13369
3198.81987,739.13369
3200.49578,738.03063
3202.17168,738.03063
3203.84759,735.82452
3205.52349,734.72147
3207.1994,732.51536
3208.8753,731.4123
3210.55121,728.10313
3212.22711,727.00008
3213.90302,724.79397
3215.57892,724.79397
3217.25483,725.89702
3218.93073,727.00008
3220.60664,727.00008
3222.28254,725.89702
3223.95845,721.4848
3225.63435,718.17564
3227.31026,714.86647
3228.98616,710.45425
3230.66207,707.14509
3232.33797,703.83592
3234.01388,699.4237
3235.68978,697.21759
3237.36569,696.11453
3239.04159,696.11453
3240.7175,697.21759
3242.3934,698.32065
3244.06931,700.52676
3245.74521,703.83592
3247.42112,706.04203
3249.09702,708.24814
3250.77293,711.55731
3252.44883,714.86647
3254.12474,717.07258
3255.80064,718.17564
3257.47655,718.17564
3259.15245,715.96953
3260.82836,713.76342
3262.50426,710.45425
3264.18016,707.14509
3265.85607,703.83592
3267.53197,701.62981
3269.20788,698.32065
3270.88378,697.21759
3272.55969,697.21759
3274.23559,699.4237
3275.9115,702.73287
3277.5874,706.04203
3279.26331,710.45425
3280.93921,714.86647
3282.61512,718.17564
3284.29102,722.58786
3285.96693,727.00008
3287.64283,730.30924
3289.31874,731.4123
3290.99464,732.51536
3292.67055,731.4123
3294.34645,729.20619
3296.02236,727.00008
3297.69826,725.89702
3299.37417,723.69091
3301.05007,722.58786
3302.72598,721.4848
3304.40188,720.38175
3306.07779,719.27869
3307.75369,719.27869
3309.4296,720.38175
3311.1055,720.38175
3312.78141,721.4848
3314.45731,721.4848
3316.13322,722.58786
3317.80912,722.58786
3319.48503,723.69091
3321.16093,723.69091
3322.83684,724.79397
3324.51274,724.79397
3326.18865,724.79397
3327.86455,723.69091
3329.54046,722.58786
3331.21636,722.58786
3332.89227,722.58786
3334.56817,722.58786
3336.24408,723.69091
3337.91998,723.69091
3339.59589,723.69091
3341.27179,722.58786
3342.9477,720.38175
3344.6236,718.17564
3346.2995,715.96953
3347.97541,713.76342
3349.65131,711.55731
3351.32722,709.3512
3353.00312,708.24814
3354.67903,707.14509
3356.35493,706.04203
3358.03084,704.93898
3359.70674,703.83592
3361.38265,702.73287
3363.05855,701.62981
3364.73446,699.4237
3366.41036,698.32065
3368.08627,696.11453
3369.76217,693.90842
3371.43808,692.80537
3373.11398,690.59926
3374.78989,689.4962
3376.46579,688.39315
3378.1417,689.4962
3379.8176,689.4962
3381.49351,691.70231
3383.16941,692.80537
3384.84532,693.90842
3386.52122,696.11453
3388.19713,698.32065
3389.87303,700.52676
3391.54894,702.73287
3393.22484,704.93898
3394.90075,707.14509
3396.57665,709.3512
3398.25256,710.45425
3399.92846,712.66036
3401.60437,714.86647
3403.28027,717.07258
3404.95618,718.17564
3406.63208,719.27869
3408.30799,721.4848
3409.98389,722.58786
3411.6598,723.69091
3413.3357,723.69091
3415.01161,723.69091
3416.68751,721.4848
3418.36342,719.27869
3420.03932,717.07258
3421.71523,711.55731
3423.39113,707.14509
3425.06704,702.73287
3426.74294,697.21759
3428.41885,692.80537
3430.09475,689.4962
3431.77065,686.18704
3433.44656,682.87787
3435.12246,679.56871
3436.79837,678.46565
3438.47427,678.46565
3440.15018,679.56871
3441.82608,679.56871
3443.50199,680.67176
3445.17789,681.77482
3446.8538,682.87787
3448.5297,683.98093
3450.20561,685.08398
3451.88151,685.08398
3453.55742,685.08398
3455.23332,685.08398
3456.90923,686.18704
3458.58513,686.18704
3460.26104,687.29009
3461.93694,688.39315
3463.61285,688.39315
3465.28875,688.39315
3466.96466,687.29009
3468.64056,686.18704
3470.31647,685.08398
3471.99237,685.08398
3473.66828,682.87787
3475.34418,681.77482
3477.02009,681.77482
3478.69599,680.67176
3480.3719,680.67176
3482.0478,679.56871
3483.72371,678.46565
3485.39961,677.3626
3487.07552,676.25954
3488.75142,674.05343
3490.42733,674.05343
3492.10323,675.15649
3493.77914,677.3626
3495.45504,678.46565
3497.13095,679.56871
3498.80685,680.67176
3500.48276,679.56871
3502.15866,677.3626
3503.83457,676.25954
3505.51047,674.05343
3507.18638,672.95038
3508.86228,670.74427
3510.53819,670.74427
3512.21409,670.74427
3513.88999,671.84732
3515.5659,672.95038
3517.2418,674.05343
3518.91771,676.25954
3520.59361,678.46565
3522.26952,680.67176
3523.94542,681.77482
3523.94542,686.18704
3523.94542,685.08398
3525.62133,681.77482
3525.62133,680.67176
3525.62133,681.77482
3525.62133,679.56871
3525.62133,683.98093
3525.62133,682.87787
3527.29723,682.87787
3527.29723,680.67176
3527.29723,679.56871
3528.97314,679.56871
3528.97314,678.46565
3530.64904,675.15649
3530.64904,678.46565
3532.32495,671.84732
3532.32495,678.46565
3532.32495,677.3626
3532.32495,676.25954
3532.32495,675.15649
3532.32495,674.05343
3532.32495,665.22899
3532.32495,666.33205
3532.32495,667.4351
3532.32495,668.53816
3534.00085,669.64121
3534.00085,670.74427
3534.00085,671.84732
3534.00085,672.95038
3534.00085,674.05343
3534.00085,664.12594
3534.00085,668.53816
3534.00085,661.91982
3534.00085,660.81677
3535.67676,659.71371
3535.67676,658.61066
3535.67676,666.33205
3535.67676,663.02288
3537.35266,664.12594
3537.35266,657.5076
3539.02857,660.81677
3539.02857,656.40455
3540.70447,655.30149
3540.70447,653.09538
3540.70447,654.19844
3540.70447,659.71371
3542.38038,660.81677
3544.05628,664.12594
3545.73219,676.25954
3547.40809,687.29009
3549.084,700.52676
3550.32056,805.29661
3550.7599,711.55731
3552.43581,713.76342
3553.93445,760.10675
3553.93445,783.89088
3554.11171,723.69091
3555.78762,734.72147
3558.27112,829.08074
3565.84305,820.75977
3565.84305,829.58421
3565.84305,821.86282
3565.84305,822.96588
3565.84305,824.06893
3565.84305,825.17199
3565.84305,833.99643
3565.84305,832.89337
3565.84305,831.79032
3565.84305,830.68726
3565.84305,827.3781
3565.84305,826.27504
3567.51895,819.65671
3567.51895,828.48115
3569.19486,805.317
3569.19486,818.55366
3570.87076,808.62616
3570.87076,806.42005
3570.87076,804.21394
3570.87076,817.4506
3570.87076,813.03838
3570.87076,814.14144
3570.87076,815.24449
3570.87076,816.34755
3570.87076,773.3284
3572.54667,749.06118
3572.54667,754.57646
3572.54667,811.93533
3572.54667,756.78257
3572.54667,798.69866
3572.54667,758.98868
3572.54667,810.83227
3572.54667,802.00783
3572.54667,803.11089
3572.54667,753.4734
3572.54667,765.60701
3572.54667,807.52311
3572.54667,750.16424
3572.54667,809.72922
3572.54667,751.26729
3572.54667,752.37035
3572.54667,757.88562
3572.54667,755.67951
3574.22257,797.59561
3574.22257,796.49255
3574.22257,795.3895
3574.22257,799.80172
3574.22257,760.09173
3574.22257,756.78257
3574.22257,800.90478
3574.22257,738.03063
3574.22257,739.13369
3574.22257,740.23674
3574.22257,741.3398
3574.22257,742.44285
3574.22257,743.54591
3574.22257,744.64896
3574.22257,745.75202
3574.22257,746.85507
3574.22257,747.95813
3574.22257,736.92758
3574.22257,735.82452
3574.22257,734.72147
3574.22257,733.61841
3574.22257,732.51536
3574.22257,731.4123
3575.89848,730.30924
3575.89848,729.20619
3575.89848,728.10313
3575.89848,727.00008
3575.89848,725.89702
3575.89848,761.19479
3575.89848,724.79397
3575.89848,723.69091
3575.89848,722.58786
3575.89848,721.4848
3575.89848,720.38175
3575.89848,714.86647
3575.89848,719.27869
3575.89848,718.17564
3575.89848,717.07258
3575.89848,715.96953
3575.89848,785.462
3575.89848,713.76342
3575.89848,747.95813
3575.89848,789.87422
3575.89848,794.28644
3575.89848,793.18339
3575.89848,792.08033
3575.89848,790.97728
3575.89848,784.35895
3575.89848,788.77117
3575.89848,787.66811
3575.89848,786.56506
3577.57438,767.81312
3577.57438,710.45425
3577.57438,783.25589
3577.57438,782.15284
3577.57438,781.04978
3577.57438,779.94673
3577.57438,778.84367
3577.57438,777.74062
3577.57438,776.63756
3577.57438,775.53451
3577.57438,774.43145
3577.57438,773.3284
3577.57438,772.22534
3577.57438,771.12229
3577.57438,770.01923
3577.57438,768.91618
3577.57438,702.73287
3577.57438,766.71007
3577.57438,703.83592
3577.57438,704.93898
3577.57438,706.04203
3577.57438,762.29784
3577.57438,708.24814
3577.57438,712.66036
3577.57438,711.55731
3577.57438,741.3398
3577.57438,709.3512
3579.25029,732.51536
3579.25029,765.60701
3579.25029,764.50395
3579.25029,763.4009
3579.25029,707.14509
3579.25029,701.62981
3579.25029,700.52676
3580.92619,700.52676
3580.92619,699.4237
3580.92619,698.32065
3580.92619,697.21759
3580.92619,722.58786
3582.6021,712.66036
3582.6021,697.21759
3584.278,702.73287
3584.278,696.11453
3584.278,692.80537
3585.95391,693.90842
3585.95391,691.70231
3585.95391,690.59926
3585.95391,696.11453
3585.95391,695.01148
3587.62981,696.11453
3587.62981,695.01148
3587.62981,693.90842
3587.62981,689.4962
3589.30572,688.39315
3589.30572,687.29009
3589.30572,692.80537
3589.30572,686.18704
3590.98162,695.01148
3592.65753,696.11453
3594.33343,699.4237
3596.00933,704.93898
3597.68524,709.3512
3599.36114,713.76342
3601.03705,718.17564
3602.71295,721.4848
3604.38886,724.79397
3606.06476,727.00008
3607.74067,728.10313
3609.41657,727.00008
3611.09248,724.79397
3612.76838,722.58786
3614.44429,721.4848
3616.12019,720.38175
3617.7961,718.17564
3619.472,718.17564
3621.14791,717.07258
3622.82381,718.17564
3624.49972,718.17564
3626.17562,718.17564
3627.85153,721.4848
3629.52743,724.79397
3631.20334,727.00008
3632.87924,730.30924
3634.55515,733.61841
3636.23105,738.03063
3637.90696,739.13369
3639.58286,740.23674
3641.25877,735.82452
3642.93467,732.51536
3644.61058,728.10313
3646.28648,724.79397
3647.96239,720.38175
3649.63829,715.96953
3651.3142,712.66036
3652.9901,709.3512
3654.66601,707.14509
3656.34191,703.83592
3658.01782,701.62981
3659.69372,699.4237
3661.36963,697.21759
3663.04553,695.01148
3664.72144,693.90842
3666.39734,692.80537
3668.07325,691.70231
3669.74915,690.59926
3671.42506,688.39315
3673.10096,685.08398
3674.77687,681.77482
3676.45277,678.46565
3678.12868,675.15649
3679.80458,672.95038
3681.48048,669.64121
3683.15639,666.33205
3684.83229,665.22899
3686.5082,665.22899
3688.1841,664.12594
3689.86001,663.02288
3691.53591,663.02288
3693.21182,663.02288
3694.88772,661.91982
3696.56363,661.91982
3698.23953,660.81677
3699.91544,659.71371
3701.59134,659.71371
3703.26725,659.71371
3704.94315,659.71371
3706.61906,659.71371
3708.29496,660.81677
3709.97087,661.91982
3711.64677,664.12594
3713.32268,666.33205
3714.99858,667.4351
3716.67449,669.64121
3718.35039,671.84732
3720.0263,672.95038
3721.7022,675.15649
3723.37811,677.3626
3725.05401,678.46565
3726.72992,678.46565
3728.40582,678.46565
3730.08173,676.25954
3731.75763,674.05343
3733.43354,671.84732
3735.10944,670.74427
3736.78535,668.53816
3738.46125,667.4351
3740.13716,667.4351
3741.81306,668.53816
3743.48897,668.53816
3745.16487,668.53816
3746.84078,668.53816
3748.51668,667.4351
3750.19259,666.33205
3751.86849,666.33205
3753.5444,666.33205
3755.2203,666.33205
3756.89621,667.4351
3758.57211,668.53816
3760.24802,669.64121
3761.92392,671.84732
3763.59982,671.84732
3765.27573,674.05343
3766.95163,675.15649
3768.62754,676.25954
3770.30344,677.3626
3771.97935,679.56871
3773.65525,680.67176
3775.33116,680.67176
3777.00706,680.67176
3778.68297,678.46565
3780.35887,677.3626
3782.03478,675.15649
3783.71068,671.84732
3785.38659,668.53816
3787.06249,665.22899
3788.7384,661.91982
3790.4143,659.71371
3792.09021,657.5076
3793.76611,656.40455
3795.44202,656.40455
3797.11792,658.61066
3798.79383,660.81677
3800.46973,664.12594
3802.14564,666.33205
3803.82154,669.64121
3805.49745,671.84732
3807.17335,675.15649
3808.84926,678.46565
3810.52516,681.77482
3812.20107,686.18704
3813.87697,688.39315
3815.55288,690.59926
3817.22878,692.80537
3818.90469,693.90842
3820.58059,693.90842
3822.2565,692.80537
3823.9324,691.70231
3825.60831,690.59926
3827.28421,690.59926
3828.96012,690.59926
3830.63602,691.70231
3832.31193,692.80537
3833.98783,691.70231
3835.66374,691.70231
3837.33964,690.59926
3839.01555,689.4962
3840.69145,687.29009
3842.36736,686.18704
3844.04326,683.98093
3845.71916,681.77482
3847.39507,679.56871
3849.07097,677.3626
3850.74688,675.15649
3852.42278,671.84732
3854.09869,669.64121
3855.77459,668.53816
3857.4505,667.4351
3859.1264,667.4351
3860.80231,669.64121
3862.47821,671.84732
3864.15412,676.25954
3865.83002,679.56871
3867.50593,682.87787
3869.18183,686.18704
3870.85774,690.59926
3872.53364,693.90842
3874.20955,697.21759
3875.88545,700.52676
3877.56136,703.83592
3879.23726,707.14509
3880.91317,707.14509
3882.58907,707.14509
3884.26498,704.93898
3884.26498,704.93898
3885.94088,701.62981
3885.94088,701.62981
3887.61679,699.4237
3887.61679,699.4237
3889.29269,696.11453
3889.29269,696.11453
3890.9686,693.90842
3890.9686,693.90842
3892.6445,690.59926
3892.6445,690.59926
3894.32041,688.39315
3894.32041,688.39315
3895.99631,687.29009
3895.99631,687.29009
3897.67222,687.29009
3897.67222,687.29009
3899.34812,687.29009
3899.34812,687.29009
3901.02403,688.39315
3901.02403,688.39315
3902.69993,689.4962
3902.69993,689.4962
3904.37584,690.59926
3904.37584,690.59926
3906.05174,691.70231
3906.05174,691.70231
3907.72765,692.80537
3907.72765,692.80537
3909.40355,693.90842
3909.40355,693.90842
3911.07946,693.90842
3911.07946,693.90842
3912.75536,693.90842
3912.75536,693.90842
3914.43127,692.80537
3914.43127,692.80537
3916.10717,691.70231
3916.10717,691.70231
3917.78308,689.4962
3917.78308,689.4962
3919.45898,688.39315
3919.45898,688.39315
3921.13489,687.29009
3921.13489,687.29009
3922.81079,685.08398
3922.81079,685.08398
3924.4867,685.08398
3924.4867,685.08398
3926.1626,685.08398
3926.1626,685.08398
3927.8385,685.08398
3927.8385,685.08398
3929.51441,686.18704
3929.51441,686.18704
3931.19031,688.39315
3931.19031,688.39315
3932.86622,689.4962
3932.86622,689.4962
3934.54212,691.70231
3934.54212,691.70231
3936.21803,693.90842
3936.21803,693.90842
3937.89393,695.01148
3937.89393,695.01148
3939.56984,695.01148
3939.56984,695.01148
3941.24574,693.90842
3941.24574,693.90842
3942.92165,692.80537
3942.92165,692.80537
3944.59755,689.4962
3944.59755,689.4962
3946.27346,687.29009
3947.94936,686.18704
3949.62527,682.87787
3951.30117,681.77482
3952.97708,679.56871
3954.65298,678.46565
3956.32889,677.3626
3958.00479,676.25954
3959.6807,676.25954
3961.3566,675.15649
3963.03251,674.05343
3964.70841,674.05343
3966.38432,672.95038
3968.06022,671.84732
3969.73613,671.84732
3971.41203,672.95038
3973.08794,674.05343
3974.76384,676.25954
3976.43975,677.3626
3978.11565,678.46565
3979.79156,678.46565
3981.46746,678.46565
3983.14337,678.46565
3984.81927,680.67176
3986.49518,682.87787
