Raman shift,Intensity
753.60413,316.56745
755.67159,316.56745
757.73905,316.56745
759.80651,315.85937
761.87398,315.85937
763.94144,315.1513
766.0089,315.1513
768.07636,315.1513
770.14383,315.1513
772.21129,315.1513
774.27875,315.1513
776.34621,315.1513
778.41368,315.1513
780.48114,315.1513
782.5486,315.1513
784.61606,315.1513
786.68353,315.1513
788.75099,315.1513
790.81845,314.44323
792.88591,314.44323
794.95338,314.44323
797.02084,314.44323
799.0883,314.44323
801.15576,314.44323
803.22323,314.44323
805.29069,314.44323
807.35815,314.44323
809.42561,314.44323
811.49308,315.1513
813.56054,315.85937
815.628,316.56745
817.69546,316.56745
819.76293,316.56745
821.83039,315.85937
823.89785,315.1513
825.96531,315.85937
828.03278,315.85937
830.10024,315.1513
832.1677,314.44323
834.23516,314.44323
836.30262,315.1513
838.37009,315.85937
840.43755,316.56745
842.50501,316.56745
844.57247,316.56745
846.63994,315.85937
848.7074,315.1513
850.77486,314.44323
852.84232,315.1513
854.90979,315.85937
856.97725,316.56745
859.04471,316.56745
861.11217,316.56745
863.17964,316.56745
865.2471,315.85937
867.31456,315.1513
869.38202,314.44323
871.44949,313.73515
873.51695,313.73515
875.58441,313.73515
877.65187,313.73515
879.71934,313.73515
881.7868,314.44323
883.85426,315.1513
885.92172,315.85937
887.98919,315.85937
890.05665,315.85937
892.12411,315.1513
894.19157,314.44323
896.25904,315.1513
898.3265,315.1513
900.39396,314.44323
902.46142,313.73515
904.52889,313.02708
906.59635,313.02708
908.66381,313.02708
910.73127,313.02708
912.79874,313.02708
914.8662,313.02708
916.93366,313.73515
919.00112,314.44323
921.06859,315.1513
923.13605,315.85937
925.20351,315.85937
927.27097,315.85937
929.33844,315.85937
931.4059,315.85937
933.47336,315.85937
935.54082,315.85937
937.60829,315.85937
939.67575,315.85937
941.74321,315.85937
943.81067,315.85937
945.87814,315.85937
947.9456,315.85937
950.01306,315.85937
952.08052,315.85937
954.14799,315.85937
956.21545,315.85937
958.28291,315.85937
960.35037,315.85937
962.41784,315.85937
964.4853,315.85937
966.55276,315.85937
968.62022,315.1513
970.68769,314.44323
972.75515,313.73515
974.82261,313.02708
976.89007,313.02708
978.95754,313.02708
981.025,313.02708
983.09246,313.02708
985.15992,313.73515
987.22739,313.73515
989.29485,313.73515
991.36231,313.73515
993.42977,313.73515
995.49724,313.73515
997.5647,313.73515
999.63216,313.73515
1001.69962,313.73515
1003.76709,313.73515
1005.83455,313.73515
1007.90201,313.73515
1009.96947,313.73515
1012.03694,313.73515
1014.1044,314.44323
1016.17186,314.44323
1018.23932,314.44323
1020.30679,315.1513
1022.37425,314.44323
1024.44171,314.44323
1026.50917,314.44323
1028.57663,315.1513
1030.6441,315.1513
1032.71156,315.1513
1034.77902,315.85937
1036.84648,315.85937
1038.91395,321.52396
1038.91395,315.85937
1038.91395,316.56745
1040.98141,317.27552
1040.98141,322.23203
1040.98141,320.81589
1040.98141,316.56745
1043.04887,317.27552
1043.04887,322.94011
1043.04887,320.10781
1043.04887,317.98359
1043.04887,318.69167
1045.11633,318.69167
1045.11633,319.39974
1045.11633,323.64818
1045.11633,327.89662
1047.1838,324.35626
1047.1838,333.56121
1047.1838,332.85314
1047.1838,328.6047
1047.1838,327.18855
1047.1838,330.72892
1047.1838,331.43699
1047.1838,329.31277
1047.1838,330.02084
1049.25126,326.48048
1049.25126,339.2258
1049.25126,332.14506
1049.25126,325.7724
1049.25126,325.06433
1049.25126,334.26928
1049.25126,334.97736
1049.25126,335.68543
1049.25126,336.3935
1049.25126,337.10158
1049.25126,337.80965
1049.25126,338.51773
1051.31872,344.89039
1051.31872,339.93387
1051.31872,340.64195
1051.31872,341.35002
1051.31872,342.05809
1051.31872,342.76617
1051.31872,343.47424
1051.31872,344.18231
1053.38618,350.55498
1053.38618,345.59846
1053.38618,346.30653
1053.38618,347.01461
1053.38618,347.72268
1053.38618,348.43075
1053.38618,349.13883
1053.38618,349.8469
1055.45365,356.92764
1055.45365,351.26305
1055.45365,351.97112
1055.45365,352.6792
1055.45365,353.38727
1055.45365,356.21956
1055.45365,354.80342
1055.45365,355.51149
1057.52111,354.09534
1057.52111,361.88415
1057.52111,357.63571
1057.52111,358.34378
1057.52111,359.05186
1057.52111,361.17608
1057.52111,360.468
1059.58857,359.75993
1059.58857,368.96489
1059.58857,362.59222
1059.58857,363.3003
1059.58857,364.00837
1059.58857,364.71645
1059.58857,365.42452
1059.58857,366.13259
1059.58857,366.84067
1059.58857,367.54874
1059.58857,368.25681
1061.65603,376.04562
1061.65603,369.67296
1061.65603,370.38103
1061.65603,371.08911
1061.65603,371.79718
1061.65603,372.50525
1061.65603,373.21333
1061.65603,373.9214
1061.65603,374.62947
1061.65603,375.33755
1063.7235,383.12636
1063.7235,376.7537
1063.7235,377.46177
1063.7235,378.16984
1063.7235,378.87792
1063.7235,379.58599
1063.7235,380.29406
1063.7235,381.00214
1063.7235,381.71021
1063.7235,382.41828
1065.79096,389.49902
1065.79096,383.83443
1065.79096,384.5425
1065.79096,385.25058
1065.79096,385.95865
1065.79096,388.79094
1065.79096,387.3748
1065.79096,388.08287
1067.85842,386.66672
1067.85842,395.87168
1067.85842,390.20709
1067.85842,390.91517
1067.85842,391.62324
1067.85842,392.33131
1067.85842,395.16361
1067.85842,393.74746
1067.85842,394.45553
1069.92588,393.03939
1069.92588,401.53627
1069.92588,396.57975
1069.92588,397.28783
1069.92588,397.9959
1069.92588,398.70397
1069.92588,399.41205
1069.92588,400.12012
1069.92588,400.82819
1071.99335,406.49278
1071.99335,402.24434
1071.99335,402.95241
1071.99335,403.66049
1071.99335,405.07664
1071.99335,405.78471
1074.06081,404.36856
1074.06081,411.4493
1074.06081,407.20086
1074.06081,407.90893
1074.06081,408.617
1074.06081,409.32508
1074.06081,410.03315
1074.06081,410.74122
1074.06081,412.15737
1076.12827,412.86544
1078.19573,415.69774
1078.19573,413.57352
1078.19573,414.28159
1078.19573,414.98966
1078.19573,417.11389
1078.19573,416.40581
1080.2632,417.82196
1082.33066,417.82196
1084.39812,417.82196
1086.46558,417.82196
1088.53305,419.23811
1088.53305,418.53003
1090.60051,417.11389
1090.60051,419.23811
1090.60051,419.94618
1092.66797,419.94618
1092.66797,417.82196
1092.66797,416.40581
1092.66797,419.23811
1092.66797,418.53003
1094.73543,420.65425
1094.73543,419.23811
1094.73543,419.94618
1094.73543,415.69774
1096.8029,414.98966
1096.8029,414.28159
1096.8029,412.15737
1096.8029,411.4493
1096.8029,419.94618
1098.87036,410.74122
1098.87036,413.57352
1098.87036,412.86544
1100.93782,405.78471
1100.93782,410.03315
1100.93782,409.32508
1100.93782,408.617
1100.93782,407.90893
1100.93782,407.20086
1100.93782,406.49278
1103.00528,402.24434
1103.00528,405.07664
1103.00528,404.36856
1103.00528,403.66049
1103.00528,402.95241
1103.00528,400.12012
1103.00528,401.53627
1103.00528,400.82819
1103.00528,396.57975
1105.07275,394.45553
1105.07275,398.70397
1105.07275,399.41205
1105.07275,397.28783
1105.07275,397.9959
1105.07275,395.87168
1105.07275,395.16361
1105.07275,393.74746
1107.14021,389.49902
1107.14021,393.03939
1107.14021,392.33131
1107.14021,391.62324
1107.14021,390.91517
1107.14021,390.20709
1107.14021,383.12636
1107.14021,388.79094
1107.14021,388.08287
1107.14021,387.3748
1109.20767,386.66672
1109.20767,385.95865
1109.20767,385.25058
1109.20767,384.5425
1109.20767,383.83443
1109.20767,381.00214
1109.20767,382.41828
1109.20767,381.71021
1109.20767,380.29406
1111.27513,376.7537
1111.27513,379.58599
1111.27513,378.87792
1111.27513,378.16984
1111.27513,377.46177
1111.27513,374.62947
1111.27513,376.04562
1111.27513,375.33755
1111.27513,346.30653
1111.27513,373.9214
1111.27513,373.21333
1111.27513,345.59846
1111.27513,347.01461
1113.3426,371.79718
1113.3426,372.50525
1113.3426,369.67296
1113.3426,370.38103
1113.3426,371.08911
1113.3426,342.76617
1113.3426,366.84067
1113.3426,366.13259
1113.3426,365.42452
1113.3426,364.71645
1113.3426,364.00837
1113.3426,341.35002
1113.3426,342.05809
1113.3426,343.47424
1113.3426,344.18231
1113.3426,344.89039
1113.3426,368.96489
1113.3426,368.25681
1113.3426,367.54874
1113.3426,347.72268
1113.3426,339.93387
1113.3426,340.64195
1115.41006,337.10158
1115.41006,354.80342
1115.41006,335.68543
1115.41006,336.3935
1115.41006,361.17608
1115.41006,360.468
1115.41006,338.51773
1115.41006,339.2258
1115.41006,358.34378
1115.41006,349.13883
1115.41006,348.43075
1115.41006,357.63571
1115.41006,363.3003
1115.41006,359.05186
1115.41006,359.75993
1115.41006,362.59222
1115.41006,361.88415
1117.47752,334.26928
1117.47752,356.21956
1117.47752,337.80965
1117.47752,356.92764
1117.47752,355.51149
1117.47752,349.8469
1117.47752,332.14506
1117.47752,332.85314
1117.47752,334.97736
1117.47752,352.6792
1117.47752,353.38727
1117.47752,354.09534
1119.54498,351.97112
1119.54498,350.55498
1119.54498,333.56121
1119.54498,351.26305
1119.54498,331.43699
1121.61245,330.02084
1121.61245,330.72892
1121.61245,327.89662
1121.61245,329.31277
1121.61245,326.48048
1121.61245,327.18855
1123.67991,325.7724
1123.67991,328.6047
1125.74737,322.23203
1125.74737,325.06433
1125.74737,324.35626
1125.74737,323.64818
1125.74737,322.94011
1127.81483,320.81589
1127.81483,321.52396
1129.8823,320.81589
1131.94976,320.81589
1134.01722,320.81589
1136.08468,320.81589
1138.15215,316.56745
1138.15215,320.81589
1138.15215,320.10781
1138.15215,319.39974
1138.15215,318.69167
1138.15215,317.98359
1138.15215,317.27552
1140.21961,315.85937
1142.28707,315.85937
1144.35453,316.56745
1146.422,317.27552
1148.48946,317.98359
1150.55692,317.98359
1152.62438,317.98359
1154.69185,317.98359
1156.75931,317.27552
1158.82677,316.56745
1160.89423,315.85937
1162.9617,315.1513
1165.02916,315.1513
1167.09662,315.1513
1169.16408,315.1513
1171.23155,315.85937
1173.29901,315.85937
1175.36647,315.85937
1177.43393,316.56745
1179.5014,317.27552
1181.56886,317.98359
1183.63632,318.69167
1185.70378,318.69167
1187.77125,317.98359
1189.83871,317.98359
1191.90617,317.98359
1193.97363,317.98359
1196.0411,317.98359
1198.10856,317.27552
1200.17602,316.56745
1202.24348,315.85937
1204.31095,315.1513
1206.37841,315.1513
1208.44587,315.1513
1210.51333,315.85937
1212.5808,315.85937
1214.64826,315.85937
1216.71572,315.85937
1218.78318,315.85937
1220.85064,315.85937
1222.91811,315.85937
1224.98557,315.85937
1227.05303,315.85937
1229.12049,315.85937
1231.18796,315.85937
1233.25542,315.85937
1235.32288,315.85937
1237.39034,316.56745
1239.45781,316.56745
1241.52527,316.56745
1243.59273,316.56745
1245.66019,316.56745
1247.72766,316.56745
1249.79512,316.56745
1251.86258,316.56745
1253.93004,317.27552
1255.99751,317.27552
1258.06497,317.27552
1260.13243,317.27552
1262.19989,317.98359
1264.26736,317.27552
1266.33482,317.27552
1268.40228,317.27552
1270.46974,317.27552
1272.53721,317.27552
1274.60467,317.98359
1276.67213,317.98359
1278.73959,317.98359
1280.80706,317.98359
1282.87452,317.98359
1284.94198,317.98359
1287.00944,317.98359
1289.07691,317.98359
1291.14437,317.98359
1293.21183,317.98359
1295.27929,317.98359
1297.34676,318.69167
1299.41422,318.69167
1301.48168,318.69167
1303.54914,318.69167
1305.61661,319.39974
1307.68407,318.69167
1309.75153,318.69167
1311.81899,318.69167
1313.88646,318.69167
1315.95392,319.39974
1318.02138,319.39974
1320.08884,320.10781
1322.15631,320.10781
1324.22377,320.81589
1326.29123,320.10781
1328.35869,320.10781
1330.42616,320.81589
1332.49362,320.81589
1334.56108,320.81589
1336.62854,320.81589
1338.69601,320.81589
1340.76347,320.81589
1342.83093,320.81589
1344.89839,320.81589
1346.96586,321.52396
1349.03332,321.52396
1351.10078,322.23203
1353.16824,322.94011
1355.23571,322.23203
1357.30317,322.23203
1359.37063,322.94011
1361.43809,323.64818
1363.50556,322.94011
1365.57302,322.94011
1367.64048,322.94011
1369.70794,322.94011
1371.77541,322.94011
1373.84287,322.94011
1375.91033,323.64818
1377.97779,323.64818
1380.04526,324.35626
1382.11272,324.35626
1384.18018,324.35626
1386.24764,324.35626
1388.31511,324.35626
1390.38257,324.35626
1392.45003,325.06433
1394.51749,325.06433
1396.58496,325.06433
1398.65242,325.7724
1400.71988,325.7724
1402.78734,327.18855
1402.78734,325.7724
1402.78734,326.48048
1402.78734,329.31277
1402.78734,327.89662
1402.78734,328.6047
1404.85481,330.02084
1404.85481,329.31277
1406.92227,330.72892
1406.92227,330.02084
1408.98973,331.43699
1408.98973,330.72892
1411.05719,332.14506
1411.05719,331.43699
1413.12465,332.14506
1415.19212,332.14506
1415.19212,332.85314
1415.19212,333.56121
1417.25958,334.26928
1419.32704,334.97736
1421.3945,334.97736
1423.46197,334.97736
1423.46197,335.68543
1425.52943,336.3935
1425.52943,335.68543
1427.59689,336.3935
1429.66435,337.10158
1429.66435,336.3935
1431.73182,337.10158
1433.79928,336.3935
1435.86674,335.68543
1437.9342,336.3935
1440.00167,337.10158
1442.06913,337.10158
1444.13659,334.97736
1444.13659,337.10158
1444.13659,336.3935
1444.13659,335.68543
1444.13659,333.56121
1444.13659,334.26928
1446.20405,332.85314
1446.20405,333.56121
1448.27152,332.14506
1448.27152,332.85314
1450.33898,332.14506
1452.40644,332.14506
1454.4739,330.72892
1454.4739,331.43699
1454.4739,330.02084
1456.54137,330.02084
1458.60883,329.31277
1460.67629,328.6047
1460.67629,329.31277
1462.74375,327.89662
1462.74375,328.6047
1464.81122,325.7724
1464.81122,327.89662
1464.81122,327.18855
1464.81122,326.48048
1466.87868,325.06433
1468.94614,324.35626
1471.0136,324.35626
1473.08107,323.64818
1473.08107,324.35626
1475.14853,323.64818
1477.21599,323.64818
1479.28345,322.94011
1479.28345,323.64818
1481.35092,322.94011
1481.35092,322.23203
1483.41838,322.23203
1485.48584,322.94011
1487.5533,323.64818
1489.62077,324.35626
1491.68823,324.35626
1493.75569,323.64818
1495.82315,323.64818
1497.89062,323.64818
1499.95808,322.94011
1502.02554,322.94011
1504.093,322.94011
1506.16047,322.94011
1508.22793,322.94011
1510.29539,322.94011
1512.36285,322.94011
1514.43032,322.23203
1516.49778,321.52396
1518.56524,320.81589
1520.6327,320.10781
1522.70017,320.10781
1524.76763,320.81589
1526.83509,324.35626
1526.83509,320.81589
1526.83509,321.52396
1526.83509,322.23203
1526.83509,322.94011
1526.83509,323.64818
1528.90255,324.35626
1530.97002,324.35626
1530.97002,325.06433
1533.03748,325.06433
1535.10494,325.7724
1535.10494,325.06433
1537.1724,325.7724
1539.23987,325.7724
1541.30733,325.7724
1541.30733,327.18855
1541.30733,326.48048
1543.37479,327.18855
1545.44225,327.89662
1547.50972,327.89662
1549.57718,327.89662
1551.64464,327.89662
1553.7121,327.89662
1553.7121,329.31277
1553.7121,328.6047
1555.77957,330.02084
1555.77957,329.31277
1557.84703,330.02084
1559.91449,330.72892
1559.91449,330.02084
1561.98195,331.43699
1564.04942,332.14506
1566.11688,332.14506
1568.18434,332.85314
1568.18434,332.14506
1570.2518,333.56121
1570.2518,332.85314
1572.31927,334.26928
1572.31927,333.56121
1574.38673,334.97736
1574.38673,334.26928
1576.45419,334.97736
1576.45419,335.68543
1578.52165,335.68543
1580.58912,337.10158
1580.58912,336.3935
1582.65658,337.80965
1582.65658,337.10158
1584.72404,338.51773
1586.7915,339.2258
1586.7915,338.51773
1588.85897,339.2258
1588.85897,339.93387
1590.92643,339.93387
1592.99389,340.64195
1592.99389,339.93387
1595.06135,340.64195
1597.12882,340.64195
1597.12882,341.35002
1599.19628,341.35002
1599.19628,342.05809
1601.26374,342.05809
1603.3312,341.35002
1605.39867,340.64195
1607.46613,339.93387
1609.53359,339.2258
1611.60105,339.93387
1613.66851,339.93387
1615.73598,339.93387
1617.80344,339.93387
1619.8709,340.64195
1621.93836,341.35002
1624.00583,341.35002
1626.07329,341.35002
1628.14075,340.64195
1630.20821,340.64195
1630.20821,337.10158
1630.20821,339.93387
1630.20821,339.2258
1630.20821,338.51773
1630.20821,337.80965
1630.20821,336.3935
1632.27568,336.3935
1632.27568,335.68543
1634.34314,335.68543
1636.4106,334.26928
1636.4106,334.97736
1638.47806,333.56121
1640.54553,333.56121
1642.61299,333.56121
1644.68045,333.56121
1646.74791,333.56121
1648.81538,331.43699
1648.81538,333.56121
1648.81538,332.85314
1648.81538,332.14506
1650.88284,331.43699
1652.9503,330.72892
1655.01776,330.72892
1657.08523,330.72892
1659.15269,330.02084
1661.22015,328.6047
1661.22015,330.02084
1661.22015,329.31277
1663.28761,327.89662
1663.28761,328.6047
1665.35508,326.48048
1665.35508,327.89662
1665.35508,327.18855
1667.42254,326.48048
1669.49,326.48048
1671.55746,325.06433
1671.55746,326.48048
1671.55746,325.7724
1673.62493,325.06433
1675.69239,321.52396
1675.69239,325.06433
1675.69239,324.35626
1675.69239,323.64818
1675.69239,322.94011
1675.69239,322.23203
1677.75985,321.52396
1679.82731,320.81589
1679.82731,321.52396
1681.89478,320.81589
1683.96224,320.10781
1683.96224,320.81589
1686.0297,320.10781
1688.09716,320.10781
1690.16463,320.81589
1692.23209,321.52396
1694.29955,321.52396
1696.36701,321.52396
1698.43448,320.81589
1700.50194,320.81589
1702.5694,320.81589
1704.63686,320.10781
1706.70433,320.10781
1708.77179,320.10781
1710.83925,320.10781
1712.90671,320.10781
1714.97418,320.10781
1717.04164,319.39974
1719.1091,318.69167
1721.17656,317.98359
1723.24403,317.27552
1725.31149,317.27552
1727.37895,317.98359
1729.44641,317.98359
1731.51388,321.52396
1731.51388,317.98359
1731.51388,318.69167
1731.51388,319.39974
1731.51388,320.10781
1731.51388,320.81589
1733.58134,322.23203
1735.6488,322.23203
1737.71626,322.94011
1737.71626,322.23203
1739.78373,322.94011
1739.78373,323.64818
1741.85119,323.64818
1743.91865,323.64818
1743.91865,324.35626
1745.98611,323.64818
1748.05358,322.94011
1750.12104,322.23203
1752.1885,322.94011
1754.25596,323.64818
1756.32343,324.35626
1758.39089,324.35626
1760.45835,322.94011
1760.45835,323.64818
1760.45835,320.81589
1760.45835,322.23203
1760.45835,321.52396
1762.52581,320.81589
1764.59328,320.10781
1764.59328,320.81589
1766.66074,319.39974
1766.66074,320.10781
1768.7282,319.39974
1770.79566,319.39974
1772.86313,318.69167
1772.86313,319.39974
1774.93059,318.69167
1774.93059,317.98359
1776.99805,317.98359
1779.06551,317.27552
1779.06551,317.98359
1781.13298,317.27552
1781.13298,316.56745
1783.20044,315.85937
1783.20044,316.56745
1785.2679,315.85937
1787.33536,315.85937
1789.40283,315.85937
1791.47029,316.56745
1793.53775,317.27552
1795.60521,317.27552
1797.67268,317.27552
1799.74014,317.27552
1801.8076,317.27552
1803.87506,317.27552
1805.94252,317.27552
1808.00999,317.27552
1810.07745,316.56745
1812.14491,315.85937
1814.21237,315.1513
1816.27984,315.1513
1818.3473,315.1513
1820.41476,315.1513
1822.48222,315.1513
1824.54969,315.1513
1826.61715,315.1513
1828.68461,314.44323
1830.75207,314.44323
1832.81954,314.44323
1834.887,314.44323
1836.95446,314.44323
1839.02192,314.44323
1841.08939,314.44323
1843.15685,314.44323
1845.22431,314.44323
1847.29177,315.1513
1849.35924,315.85937
1851.4267,316.56745
1853.49416,316.56745
1855.56162,316.56745
1857.62909,316.56745
1859.69655,316.56745
1861.76401,316.56745
1863.83147,315.85937
1865.89894,315.1513
1867.9664,314.44323
1870.03386,313.73515
1872.10132,313.73515
1874.16879,313.73515
1876.23625,313.73515
1878.30371,313.73515
1880.37117,313.73515
1882.43864,313.73515
1884.5061,313.73515
1886.57356,313.73515
1888.64102,313.73515
1890.70849,313.73515
1892.77595,313.73515
1894.84341,313.73515
1896.91087,313.73515
1898.97834,313.73515
1901.0458,313.73515
1903.11326,313.73515
1905.18072,313.73515
1907.24819,313.73515
1909.31565,313.73515
1911.38311,313.73515
1913.45057,314.44323
1915.51804,315.1513
1917.5855,314.44323
1919.65296,313.73515
1921.72042,313.73515
1923.78789,314.44323
1925.85535,315.1513
1927.92281,315.85937
1929.99027,315.1513
1932.05774,314.44323
1934.1252,313.73515
1936.19266,313.73515
1938.26012,313.73515
1940.32759,313.73515
1942.39505,313.73515
1944.46251,314.44323
1946.52997,314.44323
1948.59744,314.44323
1950.6649,314.44323
1952.73236,314.44323
1954.79982,314.44323
1956.86729,314.44323
1958.93475,314.44323
1961.00221,314.44323
1963.06967,314.44323
1965.13714,314.44323
1967.2046,314.44323
1969.27206,314.44323
1971.33952,314.44323
1973.40699,314.44323
1975.47445,314.44323
1977.54191,314.44323
1979.60937,314.44323
1981.67684,314.44323
1983.7443,314.44323
1985.81176,314.44323
1987.87922,314.44323
1989.94669,314.44323
1992.01415,314.44323
1994.08161,314.44323
1996.14907,314.44323
1998.21653,314.44323
2000.284,314.44323
2002.35146,315.1513
2004.41892,315.1513
2006.48638,315.1513
2008.55385,315.1513
2010.62131,315.1513
2012.68877,315.1513
2014.75623,315.1513
2016.8237,315.1513
2018.89116,315.1513
2020.95862,315.1513
2023.02608,315.1513
2025.09355,315.1513
2027.16101,315.1513
2029.22847,315.1513
2031.29593,315.1513
2033.3634,315.1513
2035.43086,315.1513
2037.49832,315.1513
2039.56578,315.1513
2041.63325,315.1513
2043.70071,315.85937
2045.76817,316.56745
2047.83563,317.27552
2049.9031,317.98359
2051.97056,317.98359
2054.03802,317.98359
2056.10548,317.98359
2058.17295,317.98359
2060.24041,317.98359
2062.30787,317.98359
2064.37533,317.27552
2066.4428,317.27552
2068.51026,317.27552
2070.57772,316.56745
2072.64518,315.85937
2074.71265,315.1513
2076.78011,314.44323
2078.84757,314.44323
2080.91503,315.1513
2082.9825,315.1513
2085.04996,315.85937
2087.11742,315.1513
2089.18488,315.1513
2091.25235,315.85937
2093.31981,315.85937
2095.38727,315.85937
2097.45473,315.85937
2099.5222,315.85937
2101.58966,315.85937
2103.65712,315.85937
2105.72458,315.85937
2107.79205,315.85937
2109.85951,315.85937
2111.92697,315.85937
2113.99443,315.85937
2116.0619,315.85937
2118.12936,315.85937
2120.19682,315.85937
2122.26428,315.85937
2124.33175,315.85937
2126.39921,315.85937
2128.46667,315.85937
2130.53413,315.85937
2132.6016,315.85937
2134.66906,315.85937
2136.73652,315.85937
2138.80398,316.56745
2140.87145,316.56745
2142.93891,316.56745
2145.00637,316.56745
2147.07383,316.56745
2149.1413,316.56745
2151.20876,317.27552
2153.27622,316.56745
2155.34368,316.56745
2157.41115,316.56745
2159.47861,316.56745
2161.54607,316.56745
2163.61353,316.56745
2165.681,316.56745
2167.74846,317.27552
2169.81592,317.27552
2171.88338,317.27552
2173.95085,317.27552
2176.01831,317.27552
2178.08577,317.98359
2180.15323,317.27552
2182.2207,317.27552
2184.28816,317.27552
2186.35562,317.27552
2188.42308,317.98359
2190.49054,318.69167
2192.55801,319.39974
2194.62547,320.10781
2196.69293,320.81589
2198.76039,320.81589
2200.82786,320.81589
2202.89532,320.10781
2204.96278,320.10781
2207.03024,320.10781
2209.09771,319.39974
2211.16517,320.10781
2213.23263,319.39974
2215.30009,318.69167
2217.36756,317.98359
2219.43502,317.27552
2221.50248,317.27552
2223.56994,317.98359
2225.63741,317.27552
2227.70487,317.27552
2229.77233,317.27552
2231.83979,317.27552
2233.90726,317.98359
2235.97472,318.69167
2238.04218,319.39974
2240.10964,319.39974
2242.17711,319.39974
2244.24457,319.39974
2246.31203,319.39974
2248.37949,319.39974
2250.44696,318.69167
2252.51442,317.98359
2254.58188,317.27552
2256.64934,316.56745
2258.71681,317.27552
2260.78427,317.98359
2262.85173,318.69167
2264.91919,319.39974
2266.98666,319.39974
2269.05412,319.39974
2271.12158,319.39974
2273.18904,319.39974
2275.25651,319.39974
2277.32397,319.39974
2279.39143,318.69167
2281.45889,318.69167
2283.52636,318.69167
2285.59382,318.69167
2287.66128,317.98359
2289.72874,317.27552
2291.79621,316.56745
2293.86367,315.85937
2295.93113,315.85937
2297.99859,316.56745
2300.06606,316.56745
2302.13352,317.27552
2304.20098,316.56745
2306.26844,316.56745
2308.33591,317.27552
2310.40337,317.27552
2312.47083,317.98359
2314.53829,317.98359
2316.60576,317.98359
2318.67322,317.98359
2320.74068,317.98359
2322.80814,317.98359
2324.87561,317.98359
2326.94307,318.69167
2329.01053,318.69167
2331.07799,318.69167
2333.14546,318.69167
2335.21292,318.69167
2337.28038,319.39974
2339.34784,320.10781
2341.41531,319.39974
2343.48277,320.10781
2345.55023,320.10781
2347.61769,320.10781
2349.68516,320.10781
2351.75262,320.10781
2353.82008,320.10781
2355.88754,320.10781
2357.95501,320.10781
2360.02247,319.39974
2362.08993,319.39974
2364.15739,319.39974
2366.22486,319.39974
2368.29232,319.39974
2370.35978,319.39974
2372.42724,319.39974
2374.49471,319.39974
2376.56217,318.69167
2378.62963,318.69167
2380.69709,318.69167
2382.76455,318.69167
2384.83202,318.69167
2386.89948,318.69167
2388.96694,318.69167
2391.0344,318.69167
2393.10187,318.69167
2395.16933,317.98359
2397.23679,317.27552
2399.30425,316.56745
2401.37172,315.85937
2403.43918,315.85937
2405.50664,315.85937
2407.5741,315.85937
2409.64157,315.85937
2411.70903,315.85937
2413.77649,315.85937
2415.84395,315.85937
2417.91142,315.85937
2419.97888,315.85937
2422.04634,315.85937
2424.1138,315.85937
2426.18127,315.85937
2428.24873,315.85937
2430.31619,315.85937
2432.38365,315.85937
2434.45112,315.85937
2436.51858,315.85937
2438.58604,315.85937
2440.6535,315.85937
2442.72097,315.85937
2444.78843,315.85937
2446.85589,315.85937
2448.92335,315.85937
2450.99082,315.85937
2453.05828,315.85937
2455.12574,315.85937
2457.1932,316.56745
2459.26067,317.27552
2461.32813,317.98359
2463.39559,318.69167
2465.46305,318.69167
2467.53052,318.69167
2469.59798,318.69167
2471.66544,318.69167
2473.7329,317.98359
2475.80037,317.27552
2477.86783,317.98359
2479.93529,317.27552
2482.00275,316.56745
2484.07022,315.85937
2486.13768,315.85937
2488.20514,315.85937
2490.2726,315.85937
2492.34007,316.56745
2494.40753,316.56745
2496.47499,316.56745
2498.54245,317.27552
2500.60992,317.98359
2502.67738,318.69167
2504.74484,319.39974
2506.8123,319.39974
2508.87977,318.69167
2510.94723,318.69167
2513.01469,318.69167
2515.08215,317.98359
2517.14962,318.69167
2519.21708,318.69167
2521.28454,317.98359
2523.352,317.27552
2525.41947,317.98359
2527.48693,318.69167
2529.55439,318.69167
2531.62185,318.69167
2533.68932,317.98359
2535.75678,318.69167
2537.82424,318.69167
2539.8917,318.69167
2541.95917,318.69167
2544.02663,317.98359
2546.09409,317.27552
2548.16155,316.56745
2550.22902,317.27552
2552.29648,317.98359
2554.36394,318.69167
2556.4314,318.69167
2558.49887,317.98359
2560.56633,317.98359
2562.63379,317.98359
2564.70125,317.98359
2566.76872,317.98359
2568.83618,317.98359
2570.90364,317.98359
2572.9711,317.27552
2575.03857,317.27552
2577.10603,317.27552
2579.17349,316.56745
2581.24095,315.85937
2583.30841,315.1513
2585.37588,315.1513
2587.44334,315.1513
2589.5108,315.1513
2591.57826,315.85937
2593.64573,315.85937
2595.71319,315.85937
2597.78065,316.56745
2599.84811,317.27552
2601.91558,317.98359
2603.98304,318.69167
2606.0505,318.69167
2608.11796,318.69167
2610.18543,317.98359
2612.25289,317.98359
2614.32035,317.98359
2616.38781,317.98359
2618.45528,317.98359
2620.52274,317.98359
2622.5902,317.98359
2624.65766,317.98359
2626.72513,317.98359
2628.79259,317.98359
2630.86005,317.98359
2632.92751,317.98359
2634.99498,317.98359
2637.06244,317.98359
2639.1299,317.98359
2641.19736,317.98359
2643.26483,317.98359
2645.33229,317.27552
2647.39975,316.56745
2649.46721,315.85937
2651.53468,316.56745
2653.60214,315.85937
2655.6696,315.85937
2657.73706,315.1513
2659.80453,314.44323
2661.87199,313.73515
2663.93945,313.73515
2666.00691,313.73515
2668.07438,314.44323
2670.14184,314.44323
2672.2093,314.44323
2674.27676,314.44323
2676.34423,314.44323
2678.41169,314.44323
2680.47915,314.44323
2682.54661,314.44323
2684.61408,314.44323
2686.68154,314.44323
2688.749,314.44323
2690.81646,314.44323
2692.88393,314.44323
2694.95139,314.44323
2697.01885,314.44323
2699.08631,314.44323
2701.15378,314.44323
2703.22124,314.44323
2705.2887,314.44323
2707.35616,314.44323
2709.42363,314.44323
2711.49109,314.44323
2713.55855,314.44323
2715.62601,314.44323
2717.69348,314.44323
2719.76094,314.44323
2721.8284,314.44323
2723.89586,314.44323
2725.96333,314.44323
2728.03079,315.1513
2730.09825,315.1513
2732.16571,314.44323
2734.23318,314.44323
2736.30064,314.44323
2738.3681,315.1513
2740.43556,315.85937
2742.50303,316.56745
2744.57049,317.27552
2746.63795,317.27552
2748.70541,317.27552
2750.77288,317.27552
2752.84034,317.27552
2754.9078,316.56745
2756.97526,315.85937
2759.04273,315.1513
2761.11019,314.44323
2763.17765,314.44323
2765.24511,314.44323
2767.31258,314.44323
2769.38004,314.44323
2771.4475,314.44323
2773.51496,314.44323
2775.58242,314.44323
2777.64989,314.44323
2779.71735,314.44323
2781.78481,314.44323
2783.85227,314.44323
2785.91974,314.44323
2787.9872,314.44323
2790.05466,314.44323
2792.12212,314.44323
2794.18959,314.44323
2796.25705,315.1513
2798.32451,315.1513
2800.39197,315.1513
2802.45944,315.1513
2804.5269,315.1513
2806.59436,315.1513
2808.66182,315.1513
2810.72929,315.1513
2812.79675,315.1513
2814.86421,315.1513
2816.93167,315.1513
2818.99914,315.1513
2821.0666,315.1513
2823.13406,315.1513
2825.20152,315.1513
2827.26899,315.1513
2829.33645,315.1513
2831.40391,315.85937
2833.47137,316.56745
2835.53884,317.27552
2837.6063,317.98359
2839.67376,317.98359
2841.74122,317.98359
2843.80869,317.98359
2845.87615,317.98359
2847.94361,317.98359
2850.01107,317.98359
2852.07854,317.98359
2854.146,317.27552
2856.21346,317.27552
2858.28092,317.27552
2860.34839,316.56745
2862.41585,315.85937
2864.48331,315.1513
2866.55077,314.44323
2868.61824,314.44323
2870.6857,315.1513
2872.75316,315.1513
2874.82062,315.1513
2876.88809,315.1513
2878.95555,315.85937
2881.02301,315.1513
2883.09047,315.1513
2885.15794,315.1513
2887.2254,315.1513
2889.29286,315.85937
2891.36032,315.85937
2893.42779,315.85937
2895.49525,315.85937
2897.56271,315.85937
2899.63017,315.85937
2901.69764,315.85937
2903.7651,315.85937
2905.83256,315.85937
2907.90002,315.85937
2909.96749,315.85937
2912.03495,315.85937
2914.10241,315.85937
2916.16987,315.85937
2918.23734,315.85937
2920.3048,315.85937
2922.37226,315.85937
2924.43972,315.85937
2926.50719,315.85937
2928.57465,315.85937
2930.64211,315.85937
2932.70957,315.85937
2934.77704,315.85937
2936.8445,315.85937
2938.91196,315.85937
2940.97942,315.85937
2943.04689,315.85937
2945.11435,315.85937
2947.18181,315.85937
2949.24927,316.56745
2951.31674,317.27552
2953.3842,317.98359
2955.45166,318.69167
2957.51912,318.69167
2959.58659,318.69167
2961.65405,318.69167
2963.72151,318.69167
2965.78897,318.69167
2967.85643,318.69167
2969.9239,317.98359
2971.99136,317.98359
2974.05882,317.98359
2976.12628,317.98359
2978.19375,317.98359
2980.26121,317.98359
2982.32867,317.98359
2984.39613,317.98359
2986.4636,317.98359
2988.53106,317.98359
2990.59852,317.98359
2992.66598,317.98359
2994.73345,317.98359
2996.80091,317.98359
2998.86837,317.98359
3000.93583,317.98359
3003.0033,317.98359
3005.07076,317.27552
3007.13822,317.27552
3009.20568,317.27552
3011.27315,316.56745
3013.34061,315.85937
3015.40807,315.1513
3017.47553,314.44323
3019.543,315.1513
3021.61046,315.1513
3023.67792,315.1513
3025.74538,315.1513
3027.81285,315.1513
3029.88031,315.85937
3031.94777,316.56745
3034.01523,317.27552
3036.0827,317.98359
3038.15016,317.98359
3040.21762,317.98359
3042.28508,317.27552
3044.35255,316.56745
3046.42001,317.27552
3048.48747,317.98359
3050.55493,317.98359
3052.6224,317.27552
3054.68986,317.27552
3056.75732,317.27552
3058.82478,317.27552
3060.89225,316.56745
3062.95971,317.27552
3065.02717,317.98359
3067.09463,317.98359
3069.1621,317.27552
3071.22956,316.56745
3073.29702,315.85937
3075.36448,315.1513
3077.43195,315.1513
3079.49941,315.1513
3081.56687,315.1513
3083.63433,315.1513
3085.7018,315.1513
3087.76926,315.1513
3089.83672,315.1513
3091.90418,315.1513
3093.97165,315.85937
3096.03911,315.85937
3098.10657,315.85937
3100.17403,315.85937
3102.2415,315.85937
3104.30896,315.85937
3106.37642,315.85937
3108.44388,315.85937
3110.51135,315.85937
3112.57881,315.85937
3114.64627,316.56745
3116.71373,317.27552
3118.7812,317.98359
3120.84866,318.69167
3122.91612,318.69167
3124.98358,318.69167
3127.05105,318.69167
3129.11851,318.69167
3131.18597,318.69167
3133.25343,318.69167
3135.3209,318.69167
3137.38836,317.98359
3139.45582,317.98359
3141.52328,317.98359
3143.59075,317.98359
3145.65821,317.98359
3147.72567,317.98359
3149.79313,317.27552
3151.8606,316.56745
3153.92806,315.85937
3155.99552,315.1513
3158.06298,315.1513
3160.13044,315.1513
3162.19791,315.1513
3164.26537,315.1513
3166.33283,315.85937
3168.40029,315.85937
3170.46776,315.85937
3172.53522,315.85937
3174.60268,315.85937
3176.67014,315.85937
3178.73761,315.85937
3180.80507,315.85937
3182.87253,315.85937
3184.93999,315.85937
3187.00746,315.85937
3189.07492,315.85937
3191.14238,316.56745
3193.20984,316.56745
3195.27731,317.27552
3197.34477,317.27552
3199.41223,317.27552
3201.47969,317.27552
3203.54716,317.27552
3205.61462,317.27552
3207.68208,317.98359
3209.74954,317.27552
3211.81701,317.27552
3213.88447,317.27552
3215.95193,317.98359
3218.01939,317.98359
3220.08686,317.98359
3222.15432,317.98359
3224.22178,317.98359
3226.28924,317.98359
3228.35671,317.98359
3230.42417,318.69167
3232.49163,319.39974
3234.55909,320.10781
3236.62656,320.81589
3238.69402,320.81589
3240.76148,320.81589
3242.82894,320.81589
3244.89641,320.81589
3246.96387,320.81589
3249.03133,320.10781
3251.09879,320.10781
3253.16626,320.10781
3255.23372,320.10781
3257.30118,320.10781
3259.36864,320.10781
3261.43611,320.10781
3263.50357,320.10781
3265.57103,320.10781
3267.63849,320.10781
3269.70596,320.10781
3271.77342,320.10781
3273.84088,319.39974
3275.90834,318.69167
3277.97581,319.39974
3280.04327,320.10781
3282.11073,320.10781
3284.17819,319.39974
3286.24566,318.69167
3288.31312,317.98359
3290.38058,317.27552
3292.44804,317.27552
3294.51551,317.98359
3296.58297,318.69167
3298.65043,319.39974
3300.71789,320.10781
3302.78536,320.10781
3304.85282,320.10781
3306.92028,320.10781
3308.98774,320.10781
3311.05521,319.39974
3313.12267,319.39974
3315.19013,318.69167
3317.25759,318.69167
3319.32506,317.98359
3321.39252,317.27552
3323.45998,317.98359
3325.52744,317.98359
3327.59491,317.98359
3329.66237,317.98359
3331.72983,317.98359
3333.79729,317.27552
3335.86476,317.98359
3337.93222,317.98359
3339.99968,317.98359
3342.06714,317.98359
3344.13461,317.27552
3346.20207,317.27552
3348.26953,316.56745
3350.33699,315.85937
3352.40445,315.1513
3354.47192,314.44323
3356.53938,314.44323
3358.60684,315.1513
3360.6743,315.1513
3362.74177,315.1513
3364.80923,315.1513
3366.87669,315.1513
3368.94415,315.1513
3371.01162,315.1513
3373.07908,315.85937
3375.14654,316.56745
3377.214,317.27552
3379.28147,317.98359
3381.34893,317.98359
3383.41639,317.98359
3385.48385,317.98359
3387.55132,317.98359
3389.61878,317.98359
3391.68624,317.98359
3393.7537,317.98359
3395.82117,317.98359
3397.88863,317.98359
3399.95609,317.98359
3402.02355,317.98359
3404.09102,317.27552
3406.15848,317.27552
3408.22594,317.27552
3410.2934,316.56745
3412.36087,316.56745
3414.42833,316.56745
3416.49579,316.56745
3418.56325,316.56745
3420.63072,316.56745
3422.69818,315.85937
3424.76564,315.1513
3426.8331,314.44323
3428.90057,313.73515
3430.96803,314.44323
3433.03549,315.1513
3435.10295,314.44323
3437.17042,314.44323
3439.23788,314.44323
3441.30534,313.73515
3443.3728,314.44323
3445.44027,315.1513
3447.50773,315.85937
3449.57519,315.85937
3451.64265,315.1513
3453.71012,314.44323
3455.77758,313.73515
3457.84504,313.73515
3459.9125,313.73515
3461.97997,313.73515
3464.04743,314.44323
3466.11489,314.44323
3468.18235,314.44323
3470.24982,315.1513
3472.31728,314.44323
3474.38474,314.44323
3476.4522,314.44323
3478.51967,315.1513
3480.58713,315.1513
3482.65459,315.1513
3484.72205,315.1513
3486.78952,315.1513
3488.85698,315.85937
3490.92444,316.56745
3492.9919,317.27552
3495.05937,317.98359
3497.12683,317.98359
3499.19429,317.98359
3501.26175,317.98359
3503.32922,317.27552
3505.39668,317.27552
3507.46414,316.56745
3509.5316,317.27552
3511.59907,317.27552
3513.66653,316.56745
3515.73399,316.56745
3517.80145,316.56745
3519.86892,316.56745
3521.93638,316.56745
3524.00384,316.56745
3526.0713,316.56745
3528.13877,315.85937
3530.20623,316.56745
3532.27369,315.85937
3534.34115,315.1513
3536.40862,314.44323
3538.47608,313.73515
3540.54354,313.73515
3542.611,313.73515
3544.67846,314.44323
3546.74593,314.44323
3548.81339,314.44323
3550.88085,315.1513
3552.94831,314.44323
3555.01578,314.44323
3557.08324,314.44323
3559.1507,315.1513
3561.21816,315.1513
3563.28563,315.1513
3565.35309,315.1513
3567.42055,315.1513
3569.48801,315.1513
3571.55548,315.1513
3573.62294,315.1513
3575.6904,315.1513
3577.75786,315.1513
3579.82533,315.1513
3581.89279,315.1513
3583.96025,315.1513
3586.02771,315.1513
3588.09518,315.1513
3590.16264,315.1513
3592.2301,315.1513
3594.29756,315.1513
3596.36503,315.1513
3598.43249,315.1513
3600.49995,315.1513
3602.56741,315.1513
3604.63488,315.1513
3606.70234,315.85937
3608.7698,315.1513
3610.83726,315.1513
3612.90473,315.1513
3614.97219,315.85937
3617.03965,316.56745
3619.10711,317.27552
3621.17458,316.56745
3623.24204,315.85937
3625.3095,315.1513
3627.37696,315.1513
3629.44443,315.1513
3631.51189,315.1513
3633.57935,315.1513
3635.64681,315.85937
3637.71428,315.85937
3639.78174,315.85937
3641.8492,316.56745
3643.91666,317.27552
3645.98413,317.98359
3648.05159,318.69167
3650.11905,318.69167
3652.18651,317.98359
3654.25398,317.98359
3656.32144,317.98359
3658.3889,317.98359
3660.45636,317.98359
3662.52383,317.98359
3664.59129,317.98359
3666.65875,317.98359
3668.72621,317.27552
3670.79368,316.56745
3672.86114,315.85937
3674.9286,315.1513
3676.99606,315.1513
3679.06353,315.85937
3681.13099,316.56745
3683.19845,315.85937
3685.26591,315.1513
3687.33338,315.1513
3689.40084,315.85937
3691.4683,316.56745
3693.53576,317.27552
3695.60323,317.98359
3697.67069,317.98359
3699.73815,317.98359
3701.80561,317.98359
3703.87308,317.98359
3705.94054,317.98359
3708.008,317.27552
3710.07546,316.56745
3712.14293,315.85937
3714.21039,315.1513
3716.27785,314.44323
3718.34531,314.44323
3720.41278,315.1513
3722.48024,315.1513
3724.5477,315.1513
3726.61516,315.1513
3728.68263,315.1513
3730.75009,315.85937
3732.81755,316.56745
3734.88501,317.27552
3736.95248,317.98359
3739.01994,317.27552
3741.0874,316.56745
3743.15486,315.85937
3745.22232,316.56745
3747.28979,317.27552
3749.35725,317.98359
3751.42471,317.27552
3753.49217,316.56745
3755.55964,315.85937
3757.6271,315.1513
3759.69456,315.1513
3761.76202,315.1513
3763.82949,315.1513
3765.89695,315.1513
3767.96441,315.1513
3770.03187,315.1513
3772.09934,315.1513
3774.1668,315.85937
3776.23426,316.56745
3778.30172,317.27552
3780.36919,317.98359
3782.43665,317.98359
3784.50411,317.98359
3786.57157,317.98359
3788.63904,317.98359
3790.7065,317.98359
3792.77396,317.98359
3794.84142,317.98359
3796.90889,317.27552
3798.97635,317.27552
3801.04381,317.27552
3803.11127,317.27552
3805.17874,317.27552
3807.2462,317.27552
3809.31366,317.27552
3811.38112,317.27552
3813.44859,317.27552
3815.51605,316.56745
3817.58351,315.85937
3819.65097,315.1513
3821.71844,314.44323
3823.7859,314.44323
3825.85336,314.44323
3827.92082,314.44323
3829.98829,314.44323
3832.05575,314.44323
3834.12321,314.44323
3836.19067,314.44323
3838.25814,314.44323
3840.3256,314.44323
3842.39306,314.44323
3844.46052,314.44323
3846.52799,314.44323
3848.59545,315.1513
3850.66291,315.85937
3852.73037,316.56745
3854.79784,316.56745
3856.8653,316.56745
3858.93276,317.27552
3861.00022,317.98359
3863.06769,318.69167
3865.13515,318.69167
3867.20261,318.69167
3869.27007,317.98359
3871.33754,317.98359
3873.405,317.98359
3875.47246,317.98359
3877.53992,317.98359
3879.60739,317.98359
3881.67485,317.98359
3883.74231,317.98359
3885.80977,317.98359
3887.87724,317.98359
3889.9447,317.98359
3892.01216,317.98359
3894.07962,317.98359
3896.14709,317.98359
3898.21455,317.98359
3900.28201,317.98359
3902.34947,317.98359
3904.41694,317.27552
3906.4844,317.27552
3908.55186,316.56745
3910.61932,315.85937
3912.68679,315.1513
3914.75425,315.1513
3916.82171,315.85937
3918.88917,316.56745
3920.95664,315.85937
3923.0241,316.56745
3925.09156,317.27552
3927.15902,317.98359
3929.22649,317.98359
3931.29395,317.98359
3933.36141,317.98359
3935.42887,317.98359
3937.49633,317.27552
3939.5638,316.56745
3941.63126,315.85937
3943.69872,316.56745
3945.76618,317.27552
3947.83365,317.98359
3949.90111,317.27552
3951.96857,316.56745
3954.03603,315.85937
3956.1035,315.85937
3958.17096,316.56745
3960.23842,316.56745
3962.30588,315.85937
3964.37335,315.85937
3966.44081,315.85937
3968.50827,316.56745
3970.57573,316.56745
3972.6432,316.56745
3974.71066,317.27552
3976.77812,317.98359
3978.84558,318.69167
3980.91305,319.39974
3982.98051,318.69167
3985.04797,318.69167
3987.11543,318.69167
