Raman shift,Intensity
418.70051,870.84091
420.25484,870.84091
421.80918,872.19726
423.36352,873.55361
424.91786,874.90996
426.4722,876.2663
428.02654,877.62265
429.58088,878.979
431.13522,883.04804
432.68956,887.11709
434.24389,891.18613
435.79823,893.89882
437.35257,896.61152
438.90691,902.03691
440.46125,907.4623
442.01559,914.24404
443.56993,921.02578
445.12427,929.16387
446.6786,934.58926
448.23294,941.371
449.78728,949.50908
451.34162,959.00352
452.89596,967.1416
454.4503,975.27969
456.00464,983.41778
457.55898,992.91221
459.11331,1002.40664
460.66765,1010.54473
462.22199,1017.32647
463.77633,1024.10821
465.33067,1030.88995
466.88501,1036.31534
468.43935,1043.09708
469.99369,1049.87882
471.54802,1052.59151
473.10236,1055.30421
474.6567,1059.37325
476.21104,1060.7296
477.76538,1059.37325
479.31972,1058.0169
480.87406,1055.30421
482.4284,1051.23516
483.98273,1045.80977
485.53707,1039.02803
487.09141,1034.95899
488.64575,1029.5336
490.20009,1022.75186
491.75443,1015.97012
493.30877,1009.18838
499.52612,976.63604
501.08046,968.49795
502.6348,960.35986
504.18914,953.57813
505.74348,946.79639
507.29782,940.01465
508.85216,933.23291
510.40649,926.45117
511.96083,921.02578
513.51517,915.60039
515.06951,911.53135
516.62385,907.4623
518.17819,903.39326
519.73253,899.32422
527.50422,887.11709
529.05856,884.40439
530.6129,883.04804
532.16724,881.69169
533.72158,881.69169
535.27591,880.33535
536.83025,878.979
538.38459,878.979
539.93893,877.62265
541.49327,877.62265
543.04761,876.2663
544.60195,876.2663
546.15629,876.2663
547.71063,874.90996
549.26496,873.55361
550.8193,873.55361
552.37364,872.19726
553.92798,872.19726
555.48232,872.19726
557.03666,872.19726
558.591,872.19726
560.14534,870.84091
561.69967,870.84091
563.25401,870.84091
564.80835,869.48456
566.36269,869.48456
567.91703,869.48456
569.47137,869.48456
571.02571,868.12822
572.58005,868.12822
574.13438,868.12822
575.68872,868.12822
577.24306,868.12822
578.7974,868.12822
580.35174,868.12822
581.90608,868.12822
583.46042,868.12822
585.01476,868.12822
586.56909,866.77187
588.12343,866.77187
589.67777,866.77187
591.23211,866.77187
592.78645,866.77187
594.34079,866.77187
595.89513,868.12822
597.44947,868.12822
599.0038,868.12822
600.55814,868.12822
602.11248,868.12822
603.66682,868.12822
605.22116,868.12822
606.7755,868.12822
608.32984,868.12822
609.88418,868.12822
611.43852,868.12822
649.71356,873.5492
689.89669,873.5492
712.56409,868.15522
760.65504,862.70283
762.20938,864.05917
763.76372,865.41552
765.31805,866.77187
766.87239,865.41552
768.42673,864.05917
769.98107,864.05917
771.53541,864.05917
773.08975,862.70283
774.64409,864.05917
776.19843,865.41552
777.75277,865.41552
779.3071,865.41552
780.86144,865.41552
780.86144,866.77187
782.41578,866.77187
783.97012,868.12822
785.52446,868.12822
785.52446,869.48456
787.0788,869.48456
788.63314,869.48456
790.18748,869.48456
791.74181,870.84091
791.74181,872.19726
793.29615,872.19726
794.85049,872.19726
796.40483,873.55361
796.40483,874.90996
797.95917,874.90996
797.95917,876.2663
797.95917,877.62265
799.51351,878.979
801.06785,880.33535
802.62219,881.69169
802.62219,883.04804
802.62219,884.40439
804.17652,885.76074
805.73086,885.76074
807.2852,885.76074
808.83954,885.76074
810.39388,885.76074
811.94822,885.76074
813.50256,884.40439
815.0569,883.04804
816.61123,884.40439
818.16557,884.40439
818.16557,883.04804
819.71991,883.04804
821.27425,883.04804
821.27425,881.69169
822.82859,881.69169
822.82859,880.33535
824.38293,880.33535
825.93727,880.33535
825.93727,878.979
827.49161,878.979
829.04594,878.979
829.04594,877.62265
830.60028,877.62265
830.60028,876.2663
830.60028,874.90996
830.60028,873.55361
832.15462,872.19726
832.15462,870.84091
832.15462,869.48456
832.15462,868.12822
833.70896,866.77187
835.2633,866.77187
836.81764,866.77187
838.37198,868.12822
839.92632,868.12822
841.48066,868.12822
843.03499,866.77187
844.58933,865.41552
846.14367,864.05917
847.69801,864.05917
849.25235,865.41552
850.80669,864.05917
852.36103,864.05917
853.91537,864.05917
855.4697,864.05917
857.02404,862.70283
858.57838,864.05917
860.13272,862.70283
861.68706,861.34648
863.2414,861.34648
864.79574,861.34648
866.35008,861.34648
867.90441,861.34648
869.45875,861.34648
871.01309,861.34648
872.56743,862.70283
874.12177,864.05917
875.67611,865.41552
877.23045,866.77187
878.78479,868.12822
880.33912,868.12822
881.89346,868.12822
883.4478,868.12822
885.00214,868.12822
886.55648,866.77187
888.11082,865.41552
889.66516,864.05917
891.2195,862.70283
892.77384,861.34648
894.32817,861.34648
895.88251,861.34648
897.43685,862.70283
898.99119,861.34648
900.54553,861.34648
902.09987,861.34648
903.65421,861.34648
905.20855,861.34648
906.76288,859.99013
908.31722,859.99013
909.87156,861.34648
911.4259,862.70283
912.98024,864.05917
914.53458,865.41552
916.08892,865.41552
917.64326,864.05917
919.19759,865.41552
920.75193,866.77187
922.30627,866.77187
923.86061,865.41552
925.41495,864.05917
926.96929,865.41552
928.52363,864.05917
930.07797,862.70283
931.6323,861.34648
933.18664,859.99013
934.74098,859.99013
936.29532,859.99013
937.84966,859.99013
939.404,861.34648
940.95834,862.70283
942.51268,864.05917
944.06701,865.41552
945.62135,865.41552
947.17569,866.77187
948.73003,865.41552
950.28437,864.05917
951.83871,864.05917
953.39305,864.05917
954.94739,865.41552
956.50173,865.41552
958.05606,865.41552
959.6104,864.05917
961.16474,864.05917
962.71908,864.05917
964.27342,864.05917
965.82776,862.70283
967.3821,861.34648
968.93644,859.99013
970.49077,859.99013
972.04511,861.34648
973.59945,862.70283
975.15379,862.70283
976.70813,862.70283
978.26247,862.70283
979.81681,862.70283
981.37115,862.70283
982.92548,864.05917
984.47982,862.70283
986.03416,861.34648
987.5885,861.34648
989.14284,861.34648
990.69718,859.99013
992.25152,859.99013
993.80586,859.99013
995.36019,859.99013
996.91453,859.99013
998.46887,859.99013
1000.02321,859.99013
1001.57755,859.99013
1003.13189,859.99013
1004.68623,859.99013
1006.24057,859.99013
1007.79491,859.99013
1009.34924,859.99013
1010.90358,859.99013
1012.45792,859.99013
1014.01226,859.99013
1015.5666,861.34648
1017.12094,862.70283
1018.67528,861.34648
1020.22962,861.34648
1021.78395,861.34648
1023.33829,861.34648
1024.89263,861.34648
1026.44697,861.34648
1028.00131,862.70283
1029.55565,864.05917
1031.10999,864.05917
1032.66433,864.05917
1034.21866,864.05917
1035.773,864.05917
1037.32734,865.41552
1038.88168,866.77187
1040.43602,866.77187
1041.99036,865.41552
1043.5447,864.05917
1045.09904,862.70283
1046.65337,862.70283
1048.20771,862.70283
1049.76205,864.05917
1051.31639,864.05917
1051.31639,865.41552
1052.87073,865.41552
1054.42507,865.41552
1055.97941,865.41552
1055.97941,866.77187
1055.97941,868.12822
1055.97941,869.48456
1057.53375,869.48456
1059.08808,869.48456
1060.64242,868.12822
1062.19676,869.48456
1063.7511,870.84091
1065.30544,872.19726
1066.85978,873.55361
1068.41412,874.90996
1069.96846,876.2663
1071.5228,877.62265
1073.07713,877.62265
1074.63147,877.62265
1076.18581,877.62265
1077.74015,877.62265
1079.29449,878.979
1080.84883,880.33535
1082.40317,878.979
1083.95751,877.62265
1085.51184,877.62265
1087.06618,876.2663
1088.62052,874.90996
1090.17486,873.55361
1091.7292,873.55361
1093.28354,873.55361
1094.83788,873.55361
1096.39222,874.90996
1097.94655,874.90996
1099.50089,874.90996
1101.05523,874.90996
1102.60957,873.55361
1102.60957,872.19726
1104.16391,870.84091
1105.71825,870.84091
1107.27259,869.48456
1108.82693,868.12822
1110.38126,868.12822
1111.9356,868.12822
1113.48994,868.12822
1115.04428,866.77187
1116.59862,866.77187
1118.15296,866.77187
1119.7073,868.12822
1121.26164,869.48456
1122.81598,870.84091
1124.37031,872.19726
1125.92465,872.19726
1127.47899,872.19726
1129.03333,870.84091
1130.58767,869.48456
1132.14201,869.48456
1133.69635,868.12822
1135.25069,866.77187
1136.80502,865.41552
1138.35936,865.41552
1139.9137,866.77187
1141.46804,866.77187
1143.02238,868.12822
1143.02238,869.48456
1144.57672,869.48456
1144.57672,870.84091
1146.13106,870.84091
1146.13106,872.19726
1147.6854,872.19726
1149.23973,872.19726
1149.23973,873.55361
1150.79407,873.55361
1150.79407,874.90996
1152.34841,874.90996
1153.90275,874.90996
1155.45709,876.2663
1155.45709,877.62265
1157.01143,877.62265
1157.01143,878.979
1158.56577,878.979
1158.56577,880.33535
1158.56577,881.69169
1158.56577,883.04804
1158.56577,884.40439
1158.56577,885.76074
1158.56577,887.11709
1158.56577,888.47343
1158.56577,889.82978
1160.12011,889.82978
1161.67444,889.82978
1163.22878,889.82978
1164.78312,889.82978
1166.33746,889.82978
1167.8918,891.18613
1169.44614,891.18613
1171.00048,891.18613
1172.55482,891.18613
1174.10915,889.82978
1175.66349,889.82978
1177.21783,889.82978
1178.77217,889.82978
1178.77217,888.47343
1180.32651,888.47343
1180.32651,887.11709
1181.88085,887.11709
1183.43519,887.11709
1183.43519,885.76074
1184.98953,885.76074
1186.54387,885.76074
1186.54387,884.40439
1188.0982,884.40439
1189.65254,884.40439
1189.65254,883.04804
1191.20688,883.04804
1191.20688,881.69169
1192.76122,881.69169
1192.76122,880.33535
1194.31556,880.33535
1195.8699,880.33535
1197.42424,878.979
1197.42424,877.62265
1197.42424,876.2663
1197.42424,874.90996
1197.42424,873.55361
1197.42424,872.19726
1197.42424,870.84091
1198.97858,869.48456
1200.53291,868.12822
1202.08725,868.12822
1203.64159,869.48456
1205.19593,868.12822
1206.75027,866.77187
1208.30461,866.77187
1209.85895,866.77187
1211.41329,866.77187
1212.96762,866.77187
1214.52196,865.41552
1216.0763,865.41552
1217.63064,865.41552
1219.18498,866.77187
1220.73932,865.41552
1222.29366,865.41552
1223.848,865.41552
1225.40233,865.41552
1226.95667,865.41552
1228.51101,865.41552
1230.06535,864.05917
1231.61969,865.41552
1233.17403,864.05917
1234.72837,864.05917
1236.28271,864.05917
1237.83705,865.41552
1239.39138,866.77187
1240.94572,868.12822
1242.50006,869.48456
1244.0544,868.12822
1245.60874,868.12822
1247.16308,869.48456
1248.71742,870.84091
1250.27176,872.19726
1251.82609,870.84091
1253.38043,870.84091
1254.93477,869.48456
1256.48911,869.48456
1258.04345,869.48456
1259.59779,869.48456
1261.15213,869.48456
1262.70647,869.48456
1264.2608,869.48456
1265.81514,869.48456
1267.36948,869.48456
1268.92382,869.48456
1270.47816,869.48456
1272.0325,869.48456
1273.58684,868.12822
1275.14118,866.77187
1276.69551,868.12822
1278.24985,869.48456
1279.80419,870.84091
1281.35853,869.48456
1282.91287,869.48456
1284.46721,869.48456
1286.02155,869.48456
1287.57589,870.84091
1289.13022,870.84091
1290.68456,870.84091
1292.2389,870.84091
1293.79324,869.48456
1295.34758,868.12822
1296.90192,866.77187
1298.45626,868.12822
1300.0106,869.48456
1301.56494,869.48456
1303.11927,869.48456
1304.67361,870.84091
1306.22795,870.84091
1307.78229,870.84091
1309.33663,869.48456
1310.89097,868.12822
1312.44531,866.77187
1313.99965,865.41552
1315.55398,864.05917
1317.10832,864.05917
1318.66266,864.05917
1320.217,864.05917
1321.77134,864.05917
1323.32568,864.05917
1324.88002,864.05917
1326.43436,864.05917
1327.98869,865.41552
1329.54303,866.77187
1331.09737,866.77187
1332.65171,865.41552
1334.20605,864.05917
1335.76039,862.70283
1337.31473,862.70283
1338.86907,864.05917
1340.4234,865.41552
1341.97774,866.77187
1343.53208,868.12822
1345.08642,866.77187
1346.64076,865.41552
1348.1951,865.41552
1349.74944,865.41552
1351.30378,864.05917
1352.85812,864.05917
1354.41245,864.05917
1355.96679,865.41552
1357.52113,866.77187
1359.07547,868.12822
1360.62981,869.48456
1362.18415,870.84091
1363.73849,870.84091
1365.29283,869.48456
1366.84716,868.12822
1368.4015,866.77187
1369.95584,866.77187
1371.51018,865.41552
1373.06452,866.77187
1374.61886,866.77187
1376.1732,866.77187
1377.72754,868.12822
1379.28187,869.48456
1380.83621,870.84091
1382.39055,870.84091
1383.94489,870.84091
1385.49923,870.84091
1387.05357,872.19726
1388.60791,870.84091
1390.16225,870.84091
1391.71658,872.19726
1393.27092,872.19726
1394.82526,872.19726
1396.3796,870.84091
1397.93394,869.48456
1399.48828,868.12822
1401.04262,866.77187
1402.59696,866.77187
1404.15129,866.77187
1405.70563,866.77187
1407.25997,866.77187
1408.81431,866.77187
1410.36865,868.12822
1411.92299,866.77187
1413.47733,865.41552
1415.03167,864.05917
1416.58601,865.41552
1418.14034,866.77187
1419.69468,866.77187
1421.24902,865.41552
1422.80336,864.05917
1424.3577,864.05917
1425.91204,864.05917
1427.46638,864.05917
1429.02072,864.05917
1430.57505,864.05917
1432.12939,864.05917
1433.68373,865.41552
1435.23807,866.77187
1436.79241,868.12822
1438.34675,866.77187
1439.90109,865.41552
1441.45543,865.41552
1443.00976,865.41552
1444.5641,865.41552
1446.11844,865.41552
1447.67278,865.41552
1449.22712,864.05917
1450.78146,864.05917
1452.3358,864.05917
1453.89014,864.05917
1455.44447,864.05917
1456.99881,865.41552
1458.55315,866.77187
1460.10749,868.12822
1461.66183,869.48456
1463.21617,870.84091
1464.77051,869.48456
1466.32485,868.12822
1467.87919,866.77187
1469.43352,865.41552
1470.98786,864.05917
1472.5422,864.05917
1474.09654,864.05917
1475.65088,865.41552
1477.20522,864.05917
1478.75956,865.41552
1480.3139,866.77187
1481.86823,868.12822
1483.42257,866.77187
1484.97691,865.41552
1486.53125,864.05917
1488.08559,864.05917
1489.63993,864.05917
1491.19427,864.05917
1492.74861,864.05917
1494.30294,865.41552
1495.85728,865.41552
1497.41162,865.41552
1498.96596,864.05917
1500.5203,864.05917
1502.07464,864.05917
1503.62898,864.05917
1505.18332,864.05917
1506.73765,865.41552
1508.29199,866.77187
1509.84633,868.12822
1511.40067,866.77187
1512.95501,865.41552
1514.50935,864.05917
1516.06369,864.05917
1517.61803,864.05917
1519.17236,864.05917
1520.7267,865.41552
1522.28104,866.77187
1523.83538,868.12822
1525.38972,868.12822
1526.94406,868.12822
1528.4984,869.48456
1530.05274,869.48456
1531.60708,868.12822
1533.16141,868.12822
1534.71575,868.12822
1536.27009,868.12822
1537.82443,868.12822
1539.37877,868.12822
1540.93311,868.12822
1542.48745,869.48456
1544.04179,870.84091
1545.59612,869.48456
1547.15046,868.12822
1548.7048,868.12822
1550.25914,869.48456
1551.81348,870.84091
1553.36782,872.19726
1554.92216,873.55361
1556.4765,873.55361
1558.03083,873.55361
1559.58517,873.55361
1561.13951,873.55361
1562.69385,873.55361
1564.24819,873.55361
1565.80253,873.55361
1567.35687,873.55361
1568.91121,874.90996
1570.46554,874.90996
1572.01988,874.90996
1573.57422,874.90996
1575.12856,874.90996
1576.6829,873.55361
1578.23724,872.19726
1579.79158,870.84091
1581.34592,870.84091
1582.90026,872.19726
1584.45459,872.19726
1586.00893,872.19726
1587.56327,873.55361
1589.11761,872.19726
1590.67195,872.19726
1592.22629,873.55361
1593.78063,874.90996
1595.33497,876.2663
1596.8893,876.2663
1598.44364,876.2663
1599.99798,876.2663
1601.55232,874.90996
1603.10666,873.55361
1604.661,874.90996
1606.21534,876.2663
1607.76968,877.62265
1609.32401,876.2663
1610.87835,874.90996
1612.43269,874.90996
1613.98703,874.90996
1615.54137,876.2663
1617.09571,874.90996
1618.65005,873.55361
1620.20439,872.19726
1621.75872,872.19726
1623.31306,872.19726
1624.8674,872.19726
1626.42174,872.19726
1627.97608,870.84091
1629.53042,870.84091
1631.08476,870.84091
1632.6391,870.84091
1634.19343,870.84091
1635.74777,872.19726
1637.30211,870.84091
1638.85645,870.84091
1640.41079,870.84091
1641.96513,870.84091
1643.51947,870.84091
1645.07381,870.84091
1646.62815,869.48456
1648.18248,869.48456
1649.73682,869.48456
1651.29116,869.48456
1652.8455,870.84091
1654.39984,869.48456
1655.95418,869.48456
1657.50852,869.48456
1659.06286,869.48456
1660.61719,869.48456
1662.17153,869.48456
1663.72587,868.12822
1665.28021,868.12822
1666.83455,868.12822
1668.38889,869.48456
1669.94323,868.12822
1671.49757,868.12822
1673.0519,868.12822
1674.60624,868.12822
1676.16058,866.77187
1677.71492,866.77187
1679.26926,866.77187
1680.8236,868.12822
1682.37794,866.77187
1683.93228,866.77187
1685.48661,866.77187
1687.04095,866.77187
1688.59529,866.77187
1690.14963,865.41552
1691.70397,865.41552
1693.25831,866.77187
1694.81265,865.41552
1696.36699,865.41552
1697.92133,865.41552
1699.47566,865.41552
1701.03,865.41552
1702.58434,865.41552
1704.13868,864.05917
1705.69302,864.05917
1707.24736,865.41552
1708.8017,866.77187
1710.35604,868.12822
1711.91037,868.12822
1713.46471,868.12822
1715.01905,868.12822
1716.57339,868.12822
1718.12773,868.12822
1719.68207,868.12822
1721.23641,868.12822
1722.79075,868.12822
1724.34508,868.12822
1725.89942,866.77187
1727.45376,866.77187
1729.0081,868.12822
1730.56244,868.12822
1732.11678,868.12822
1733.67112,868.12822
1735.22546,868.12822
1736.77979,868.12822
1738.33413,866.77187
1739.88847,865.41552
1741.44281,864.05917
1742.99715,862.70283
1744.55149,862.70283
1746.10583,862.70283
1747.66017,862.70283
1749.2145,862.70283
1750.76884,862.70283
1752.32318,862.70283
1753.87752,864.05917
1755.43186,865.41552
1756.9862,866.77187
1758.54054,866.77187
1760.09488,865.41552
1761.64922,866.77187
1763.20355,866.77187
1764.75789,866.77187
1766.31223,866.77187
1767.86657,865.41552
1769.42091,865.41552
1770.97525,865.41552
1772.52959,864.05917
1774.08393,862.70283
1775.63826,862.70283
1777.1926,862.70283
1778.74694,862.70283
1780.30128,862.70283
1781.85562,862.70283
1783.40996,862.70283
1784.9643,861.34648
1786.51864,861.34648
1788.07297,861.34648
1789.62731,861.34648
1791.18165,861.34648
1792.73599,862.70283
1794.29033,862.70283
1795.84467,862.70283
1797.39901,861.34648
1798.95335,861.34648
1800.50768,861.34648
1802.06202,862.70283
1803.61636,864.05917
1805.1707,864.05917
1806.72504,862.70283
1808.27938,861.34648
1809.83372,861.34648
1811.38806,861.34648
1812.9424,862.70283
1814.49673,864.05917
1816.05107,865.41552
1817.60541,866.77187
1819.15975,866.77187
1820.71409,868.12822
1822.26843,868.12822
1823.82277,868.12822
1825.37711,868.12822
1826.93144,868.12822
1828.48578,868.12822
1830.04012,868.12822
1831.59446,868.12822
1833.1488,868.12822
1834.70314,868.12822
1836.25748,866.77187
1837.81182,868.12822
1839.36615,868.12822
1840.92049,868.12822
1842.47483,868.12822
1844.02917,868.12822
1845.58351,868.12822
1847.13785,868.12822
1848.69219,866.77187
1850.24653,866.77187
1851.80086,866.77187
1853.3552,866.77187
1854.90954,866.77187
1856.46388,866.77187
1858.01822,868.12822
1859.57256,868.12822
1861.1269,868.12822
1862.68124,868.12822
1864.23557,868.12822
1865.78991,868.12822
1867.34425,868.12822
1868.89859,868.12822
1870.45293,868.12822
1872.00727,868.12822
1873.56161,866.77187
1875.11595,865.41552
1876.67029,864.05917
1878.22462,862.70283
1879.77896,861.34648
1881.3333,861.34648
1882.88764,861.34648
1884.44198,861.34648
1885.99632,862.70283
1887.55066,864.05917
1889.105,865.41552
1890.65933,866.77187
1892.21367,868.12822
1893.76801,868.12822
1895.32235,868.12822
1896.87669,868.12822
1898.43103,866.77187
1899.98537,865.41552
1901.53971,864.05917
1903.09404,862.70283
1904.64838,864.05917
1906.20272,865.41552
1907.75706,866.77187
1909.3114,865.41552
1910.86574,864.05917
1912.42008,862.70283
1913.97442,862.70283
1915.52875,862.70283
1917.08309,862.70283
1918.63743,862.70283
1920.19177,864.05917
1921.74611,865.41552
1923.30045,866.77187
1924.85479,868.12822
1926.40913,869.48456
1927.96346,869.48456
1929.5178,868.12822
1931.07214,866.77187
1932.62648,866.77187
1934.18082,866.77187
1935.73516,866.77187
1937.2895,866.77187
1938.84384,868.12822
1940.39818,868.12822
1941.95251,868.12822
1943.50685,868.12822
1945.06119,868.12822
1946.61553,868.12822
1948.16987,868.12822
1949.72421,868.12822
1951.27855,868.12822
1952.83289,866.77187
1954.38722,865.41552
1955.94156,864.05917
1957.4959,862.70283
1959.05024,861.34648
1960.60458,861.34648
1962.15892,861.34648
1963.71326,861.34648
1965.2676,861.34648
1966.82193,862.70283
1968.37627,864.05917
1969.93061,865.41552
1971.48495,865.41552
1973.03929,866.77187
1974.59363,868.12822
1976.14797,866.77187
1977.70231,865.41552
1979.25664,864.05917
1980.81098,862.70283
1982.36532,862.70283
1983.91966,862.70283
1985.474,862.70283
1987.02834,862.70283
1988.58268,864.05917
1990.13702,865.41552
1991.69136,866.77187
1993.24569,868.12822
1994.80003,868.12822
1996.35437,868.12822
1997.90871,868.12822
1999.46305,868.12822
2001.01739,868.12822
2002.57173,866.77187
2004.12607,866.77187
2005.6804,865.41552
2007.23474,864.05917
2008.78908,864.05917
2010.34342,864.05917
2011.89776,864.05917
2013.4521,865.41552
2015.00644,866.77187
2016.56078,866.77187
2018.11511,866.77187
2019.66945,866.77187
2021.22379,866.77187
2022.77813,868.12822
2024.33247,869.48456
2025.88681,869.48456
2027.44115,869.48456
2028.99549,869.48456
2030.54982,869.48456
2032.10416,869.48456
2033.6585,869.48456
2035.21284,869.48456
2036.76718,869.48456
2038.32152,869.48456
2039.87586,869.48456
2041.4302,869.48456
2042.98453,869.48456
2044.53887,869.48456
2046.09321,869.48456
2047.64755,869.48456
2049.20189,868.12822
2050.75623,868.12822
2052.31057,868.12822
2053.86491,868.12822
2055.41925,868.12822
2056.97358,868.12822
2058.52792,866.77187
2060.08226,865.41552
2061.6366,864.05917
2063.19094,862.70283
2064.74528,861.34648
2066.29962,859.99013
2067.85396,858.63378
2069.40829,858.63378
2070.96263,859.99013
2072.51697,859.99013
2074.07131,858.63378
2075.62565,857.27744
2077.17999,857.27744
2078.73433,857.27744
2080.28867,857.27744
2081.843,857.27744
2083.39734,857.27744
2084.95168,857.27744
2086.50602,858.63378
2088.06036,858.63378
2089.6147,858.63378
2091.16904,858.63378
2092.72338,858.63378
2094.27771,859.99013
2095.83205,861.34648
2097.38639,862.70283
2098.94073,864.05917
2100.49507,865.41552
2102.04941,866.77187
2103.60375,865.41552
2105.15809,864.05917
2106.71243,862.70283
2108.26676,861.34648
2109.8211,861.34648
2111.37544,861.34648
2112.92978,861.34648
2114.48412,861.34648
2116.03846,861.34648
2117.5928,861.34648
2119.14714,862.70283
2120.70147,864.05917
2122.25581,865.41552
2123.81015,866.77187
2125.36449,868.12822
2126.91883,869.48456
2128.47317,869.48456
2130.02751,869.48456
2131.58185,869.48456
2133.13618,869.48456
2134.69052,868.12822
2136.24486,866.77187
2137.7992,865.41552
2139.35354,864.05917
2140.90788,862.70283
2142.46222,864.05917
2144.01656,862.70283
2145.57089,861.34648
2147.12523,859.99013
2148.67957,859.99013
2150.23391,861.34648
2151.78825,862.70283
2153.34259,864.05917
2154.89693,865.41552
2156.45127,866.77187
2158.0056,868.12822
2159.55994,869.48456
2161.11428,870.84091
2162.66862,870.84091
2164.22296,870.84091
2165.7773,870.84091
2167.33164,872.19726
2168.88598,872.19726
2170.44032,872.19726
2171.99465,872.19726
2173.54899,870.84091
2175.10333,869.48456
2176.65767,868.12822
2178.21201,868.12822
2179.76635,868.12822
2181.32069,868.12822
2182.87503,868.12822
2184.42936,868.12822
2185.9837,869.48456
2187.53804,870.84091
2189.09238,869.48456
2190.64672,868.12822
2192.20106,866.77187
2193.7554,866.77187
2195.30974,866.77187
2196.86407,866.77187
2198.41841,866.77187
2199.97275,868.12822
2201.52709,869.48456
2203.08143,870.84091
2204.63577,872.19726
2206.19011,873.55361
2207.74445,873.55361
2209.29878,872.19726
2210.85312,872.19726
2212.40746,870.84091
2213.9618,869.48456
2215.51614,869.48456
2217.07048,870.84091
2218.62482,870.84091
2220.17916,869.48456
2221.7335,868.12822
2223.28783,866.77187
2224.84217,865.41552
2226.39651,864.05917
2227.95085,862.70283
2229.50519,864.05917
2231.05953,865.41552
2232.61387,866.77187
2234.16821,866.77187
2235.72254,866.77187
2237.27688,866.77187
2238.83122,865.41552
2240.38556,864.05917
2241.9399,864.05917
2243.49424,864.05917
2245.04858,864.05917
2246.60292,865.41552
2248.15725,864.05917
2249.71159,864.05917
2251.26593,864.05917
2252.82027,864.05917
2254.37461,864.05917
2255.92895,865.41552
2257.48329,865.41552
2259.03763,866.77187
2260.59196,868.12822
2262.1463,868.12822
2263.70064,868.12822
2265.25498,868.12822
2266.80932,866.77187
2268.36366,865.41552
2269.918,865.41552
2271.47234,865.41552
2273.02667,865.41552
2274.58101,865.41552
2276.13535,864.05917
2277.68969,862.70283
2279.24403,862.70283
2280.79837,862.70283
2282.35271,862.70283
2283.90705,862.70283
2285.46139,862.70283
2287.01572,862.70283
2288.57006,862.70283
2290.1244,862.70283
2291.67874,862.70283
2293.23308,864.05917
2294.78742,865.41552
2296.34176,865.41552
2297.8961,865.41552
2299.45043,865.41552
2301.00477,865.41552
2302.55911,865.41552
2304.11345,865.41552
2305.66779,865.41552
2307.22213,866.77187
2308.77647,866.77187
2310.33081,865.41552
2311.88514,865.41552
2313.43948,866.77187
2314.99382,866.77187
2316.54816,866.77187
2318.1025,866.77187
2319.65684,868.12822
2321.21118,868.12822
2322.76552,866.77187
2324.31985,866.77187
2325.87419,866.77187
2327.42853,868.12822
2328.98287,868.12822
2330.53721,868.12822
2332.09155,868.12822
2333.64589,868.12822
2335.20023,868.12822
2336.75457,868.12822
2338.3089,868.12822
2339.86324,868.12822
2341.41758,869.48456
2342.97192,869.48456
2344.52626,870.84091
2346.0806,870.84091
2347.63494,870.84091
2349.18928,870.84091
2350.74361,872.19726
2352.29795,872.19726
2353.85229,873.55361
2355.40663,873.55361
2356.96097,873.55361
2358.51531,873.55361
2360.06965,874.90996
2361.62399,876.2663
2363.17832,876.2663
2364.73266,876.2663
2366.287,876.2663
2367.84134,876.2663
2369.39568,877.62265
2370.95002,878.979
2372.50436,880.33535
2374.0587,880.33535
2374.0587,878.979
2375.61303,878.979
2375.61303,877.62265
2377.16737,877.62265
2378.72171,877.62265
2380.27605,876.2663
2381.83039,876.2663
2383.38473,876.2663
2383.38473,874.90996
2384.93907,874.90996
2384.93907,873.55361
2386.49341,873.55361
2386.49341,872.19726
2386.49341,870.84091
2386.49341,869.48456
2388.04774,869.48456
2389.60208,868.12822
2391.15642,866.77187
2392.71076,868.12822
2394.2651,869.48456
2395.81944,870.84091
2397.37378,870.84091
2398.92812,870.84091
2400.48246,870.84091
2402.03679,870.84091
2403.59113,870.84091
2405.14547,869.48456
2406.69981,868.12822
2408.25415,868.12822
2409.80849,866.77187
2411.36283,868.12822
2412.91717,869.48456
2414.4715,870.84091
2416.02584,872.19726
2417.58018,872.19726
2419.13452,872.19726
2420.68886,872.19726
2422.2432,872.19726
2423.79754,873.55361
2425.35188,872.19726
2426.90621,872.19726
2428.46055,870.84091
2430.01489,869.48456
2431.56923,868.12822
2433.12357,866.77187
2434.67791,868.12822
2436.23225,866.77187
2437.78659,865.41552
2439.34092,864.05917
2440.89526,864.05917
2442.4496,864.05917
2444.00394,864.05917
2445.55828,864.05917
2447.11262,864.05917
2448.66696,865.41552
2450.2213,866.77187
2451.77564,868.12822
2453.32997,869.48456
2454.88431,868.12822
2456.43865,866.77187
2457.99299,865.41552
2459.54733,864.05917
2461.10167,864.05917
2462.65601,864.05917
2464.21035,864.05917
2465.76468,864.05917
2467.31902,864.05917
2468.87336,864.05917
2470.4277,864.05917
2471.98204,865.41552
2473.53638,865.41552
2475.09072,865.41552
2476.64506,865.41552
2478.19939,865.41552
2479.75373,866.77187
2481.30807,866.77187
2482.86241,866.77187
2484.41675,866.77187
2485.97109,866.77187
2487.52543,866.77187
2489.07977,866.77187
2490.6341,866.77187
2492.18844,866.77187
2493.74278,866.77187
2495.29712,866.77187
2496.85146,866.77187
2498.4058,866.77187
2499.96014,868.12822
2501.51448,866.77187
2503.06881,865.41552
2504.62315,865.41552
2506.17749,865.41552
2507.73183,865.41552
2509.28617,865.41552
2510.84051,865.41552
2512.39485,865.41552
2513.94919,865.41552
2515.50353,865.41552
2517.05786,866.77187
2518.6122,868.12822
2520.16654,866.77187
2521.72088,865.41552
2523.27522,865.41552
2524.82956,865.41552
2526.3839,865.41552
2527.93824,865.41552
2529.49257,865.41552
2531.04691,865.41552
2532.60125,866.77187
2534.15559,866.77187
2535.70993,866.77187
2537.26427,868.12822
2538.81861,866.77187
2540.37295,865.41552
2541.92728,865.41552
2543.48162,865.41552
2545.03596,865.41552
2546.5903,865.41552
2548.14464,865.41552
2549.69898,865.41552
2551.25332,865.41552
2552.80766,865.41552
2554.36199,865.41552
2555.91633,865.41552
2557.47067,865.41552
2559.02501,865.41552
2560.57935,866.77187
2562.13369,866.77187
2563.68803,868.12822
2565.24237,869.48456
2566.79671,870.84091
2568.35104,869.48456
2569.90538,870.84091
2571.45972,872.19726
2573.01406,873.55361
2574.5684,873.55361
2576.12274,873.55361
2577.67708,873.55361
2579.23142,873.55361
2580.78575,873.55361
2582.34009,873.55361
2583.89443,873.55361
2585.44877,873.55361
2587.00311,873.55361
2588.55745,873.55361
2590.11179,872.19726
2591.66613,872.19726
2593.22046,872.19726
2594.7748,872.19726
2596.32914,870.84091
2597.88348,869.48456
2599.43782,868.12822
2600.99216,866.77187
2602.5465,865.41552
2604.10084,865.41552
2605.65517,865.41552
2607.20951,865.41552
2608.76385,865.41552
2610.31819,865.41552
2611.87253,866.77187
2613.42687,868.12822
2614.98121,868.12822
2616.53555,868.12822
2618.08988,869.48456
2619.64422,868.12822
2621.19856,866.77187
2622.7529,866.77187
2624.30724,866.77187
2625.86158,866.77187
2627.41592,865.41552
2628.97026,865.41552
2630.5246,865.41552
2632.07893,865.41552
2633.63327,865.41552
2635.18761,865.41552
2636.74195,865.41552
2638.29629,865.41552
2639.85063,865.41552
2641.40497,865.41552
2642.95931,865.41552
2644.51364,866.77187
2646.06798,866.77187
2647.62232,868.12822
2649.17666,869.48456
2650.731,868.12822
2652.28534,866.77187
2653.83968,865.41552
2655.39402,865.41552
2656.94835,865.41552
2658.50269,864.05917
2660.05703,864.05917
2661.61137,865.41552
2663.16571,866.77187
2664.72005,868.12822
2666.27439,868.12822
2667.82873,868.12822
2669.38306,868.12822
2670.9374,868.12822
2672.49174,868.12822
2674.04608,866.77187
2675.60042,866.77187
2677.15476,868.12822
2678.7091,868.12822
2680.26344,866.77187
2681.81778,865.41552
2683.37211,864.05917
2684.92645,862.70283
2686.48079,862.70283
2688.03513,862.70283
2689.58947,862.70283
2691.14381,862.70283
2692.69815,864.05917
2694.25249,865.41552
2695.80682,866.77187
2697.36116,868.12822
2698.9155,869.48456
2700.46984,869.48456
2702.02418,869.48456
2703.57852,869.48456
2705.13286,869.48456
2706.6872,868.12822
2708.24153,869.48456
2709.79587,869.48456
2711.35021,869.48456
2712.90455,869.48456
2714.45889,869.48456
2716.01323,869.48456
2717.56757,869.48456
2719.12191,869.48456
2720.67624,868.12822
2722.23058,866.77187
2723.78492,865.41552
2725.33926,864.05917
2726.8936,862.70283
2728.44794,861.34648
2730.00228,861.34648
2731.55662,861.34648
2733.11095,861.34648
2734.66529,862.70283
2736.21963,864.05917
2737.77397,864.05917
2739.32831,865.41552
2740.88265,866.77187
2742.43699,865.41552
2743.99133,864.05917
2745.54567,862.70283
2747.1,862.70283
2748.65434,862.70283
2750.20868,864.05917
2751.76302,865.41552
2753.31736,866.77187
2754.8717,868.12822
2756.42604,869.48456
2757.98038,868.12822
2759.53471,868.12822
2761.08905,868.12822
2762.64339,868.12822
2764.19773,868.12822
2765.75207,868.12822
2767.30641,868.12822
2768.86075,866.77187
2770.41509,865.41552
2771.96942,866.77187
2773.52376,868.12822
2775.0781,868.12822
2776.63244,868.12822
2778.18678,868.12822
2779.74112,868.12822
2781.29546,866.77187
2782.8498,866.77187
2784.40413,865.41552
2785.95847,864.05917
2787.51281,865.41552
2789.06715,865.41552
2790.62149,865.41552
2792.17583,865.41552
2793.73017,865.41552
2795.28451,865.41552
2796.83885,865.41552
2798.39318,865.41552
2799.94752,864.05917
2801.50186,862.70283
2803.0562,862.70283
2804.61054,864.05917
2806.16488,865.41552
2807.71922,866.77187
2809.27356,866.77187
2810.82789,866.77187
2812.38223,866.77187
2813.93657,866.77187
2815.49091,865.41552
2817.04525,864.05917
2818.59959,862.70283
2820.15393,861.34648
2821.70827,862.70283
2823.2626,864.05917
2824.81694,865.41552
2826.37128,865.41552
2827.92562,865.41552
2829.47996,865.41552
2831.0343,865.41552
2832.58864,864.05917
2834.14298,862.70283
2835.69731,861.34648
2837.25165,861.34648
2838.80599,861.34648
2840.36033,862.70283
2841.91467,864.05917
2843.46901,865.41552
2845.02335,865.41552
2846.57769,865.41552
2848.13202,866.77187
2849.68636,866.77187
2851.2407,865.41552
2852.79504,864.05917
2854.34938,862.70283
2855.90372,861.34648
2857.45806,859.99013
2859.0124,859.99013
2860.56674,859.99013
2862.12107,858.63378
2863.67541,858.63378
2865.22975,859.99013
2866.78409,861.34648
2868.33843,862.70283
2869.89277,862.70283
2871.44711,861.34648
2873.00145,859.99013
2874.55578,858.63378
2876.11012,858.63378
2877.66446,858.63378
2879.2188,858.63378
2880.77314,858.63378
2882.32748,858.63378
2883.88182,858.63378
2885.43616,858.63378
2886.99049,858.63378
2888.54483,859.99013
2890.09917,858.63378
2891.65351,858.63378
2893.20785,858.63378
2894.76219,858.63378
2896.31653,859.99013
2897.87087,861.34648
2899.4252,862.70283
2900.97954,864.05917
2902.53388,865.41552
2904.08822,866.77187
2905.64256,868.12822
2907.1969,868.12822
2908.75124,868.12822
2910.30558,868.12822
2911.85992,868.12822
2913.41425,866.77187
2914.96859,866.77187
2916.52293,866.77187
2918.07727,866.77187
2919.63161,866.77187
2921.18595,868.12822
2922.74029,866.77187
2924.29463,866.77187
2925.84896,866.77187
2927.4033,866.77187
2928.95764,866.77187
2930.51198,868.12822
2932.06632,869.48456
2933.62066,869.48456
2935.175,869.48456
2936.72934,870.84091
2938.28367,870.84091
2939.83801,872.19726
2941.39235,872.19726
2942.94669,872.19726
2944.50103,870.84091
2946.05537,870.84091
2947.60971,869.48456
2949.16405,868.12822
2950.71838,866.77187
2952.27272,866.77187
2953.82706,866.77187
2955.3814,866.77187
2956.93574,868.12822
2958.49008,866.77187
2960.04442,866.77187
2961.59876,866.77187
2963.15309,866.77187
2964.70743,865.41552
2966.26177,864.05917
2967.81611,862.70283
2969.37045,862.70283
2970.92479,864.05917
2972.47913,864.05917
2974.03347,865.41552
2975.58781,864.05917
2977.14214,862.70283
2978.69648,861.34648
2980.25082,861.34648
2981.80516,861.34648
2983.3595,861.34648
2984.91384,861.34648
2986.46818,861.34648
2988.02252,862.70283
2989.57685,862.70283
2991.13119,862.70283
2992.68553,862.70283
2994.23987,864.05917
2995.79421,865.41552
2997.34855,864.05917
2998.90289,864.05917
3000.45723,864.05917
3002.01156,864.05917
3003.5659,864.05917
3005.12024,865.41552
3006.67458,865.41552
3008.22892,865.41552
3009.78326,865.41552
3011.3376,865.41552
3012.89194,865.41552
3014.44627,865.41552
3016.00061,864.05917
3017.55495,862.70283
3019.10929,861.34648
3020.66363,859.99013
3022.21797,858.63378
3023.77231,858.63378
3025.32665,858.63378
3026.88099,858.63378
3028.43532,859.99013
3029.98966,859.99013
3031.544,861.34648
3033.09834,862.70283
3034.65268,862.70283
3036.20702,864.05917
3037.76136,865.41552
3039.3157,866.77187
3040.87003,866.77187
3042.42437,868.12822
3043.97871,868.12822
3045.53305,868.12822
3047.08739,868.12822
3048.64173,868.12822
3050.19607,868.12822
3051.75041,868.12822
3053.30474,868.12822
3054.85908,868.12822
3056.41342,866.77187
3057.96776,866.77187
3059.5221,866.77187
3061.07644,866.77187
3062.63078,865.41552
3064.18512,865.41552
3065.73945,865.41552
3067.29379,866.77187
3068.84813,866.77187
3070.40247,865.41552
3071.95681,864.05917
3073.51115,862.70283
3075.06549,861.34648
3076.61983,861.34648
3078.17416,861.34648
3079.7285,861.34648
3081.28284,861.34648
3082.83718,862.70283
3084.39152,864.05917
3085.94586,865.41552
3087.5002,866.77187
3089.05454,868.12822
3090.60888,868.12822
3092.16321,866.77187
3093.71755,865.41552
3095.27189,864.05917
3096.82623,864.05917
3098.38057,864.05917
3099.93491,864.05917
3101.48925,864.05917
3103.04359,864.05917
3104.59792,864.05917
3106.15226,864.05917
3107.7066,864.05917
3109.26094,864.05917
3110.81528,862.70283
3112.36962,861.34648
3113.92396,859.99013
3115.4783,858.63378
3117.03263,858.63378
3118.58697,859.99013
3120.14131,861.34648
3121.69565,861.34648
3123.24999,859.99013
3124.80433,859.99013
3126.35867,861.34648
3127.91301,861.34648
3129.46734,862.70283
3131.02168,864.05917
3132.57602,864.05917
3134.13036,864.05917
3135.6847,864.05917
3137.23904,864.05917
3138.79338,864.05917
3140.34772,864.05917
3141.90206,865.41552
3143.45639,865.41552
3145.01073,865.41552
3146.56507,866.77187
3148.11941,866.77187
3149.67375,865.41552
3151.22809,865.41552
3152.78243,865.41552
3154.33677,865.41552
3155.8911,865.41552
3157.44544,865.41552
3158.99978,864.05917
3160.55412,862.70283
3162.10846,861.34648
3163.6628,859.99013
3165.21714,858.63378
3166.77148,858.63378
3168.32581,859.99013
3169.88015,861.34648
3171.43449,862.70283
3172.98883,864.05917
3174.54317,864.05917
3176.09751,864.05917
3177.65185,864.05917
3177.65185,865.41552
3177.65185,866.77187
3179.20619,868.12822
3180.76052,869.48456
3180.76052,870.84091
3180.76052,872.19726
3182.31486,872.19726
3183.8692,870.84091
3185.42354,869.48456
3186.97788,868.12822
3188.53222,868.12822
3190.08656,866.77187
3191.6409,865.41552
3193.19523,865.41552
3194.74957,865.41552
3196.30391,865.41552
3197.85825,865.41552
3199.41259,866.77187
3200.96693,868.12822
3202.52127,869.48456
3204.07561,869.48456
3205.62995,869.48456
3207.18428,868.12822
3208.73862,866.77187
3210.29296,868.12822
3211.8473,869.48456
3213.40164,870.84091
3214.95598,872.19726
3216.51032,872.19726
3218.06466,870.84091
3219.61899,870.84091
3221.17333,869.48456
3222.72767,868.12822
3224.28201,868.12822
3225.83635,868.12822
3227.39069,868.12822
3228.94503,868.12822
3230.49937,868.12822
3232.0537,868.12822
3233.60804,868.12822
3235.16238,868.12822
3236.71672,869.48456
3238.27106,868.12822
3239.8254,866.77187
3241.37974,865.41552
3242.93408,865.41552
3244.48841,865.41552
3246.04275,865.41552
3247.59709,865.41552
3249.15143,865.41552
3250.70577,865.41552
3252.26011,865.41552
3253.81445,865.41552
3255.36879,866.77187
3256.92313,865.41552
3258.47746,865.41552
3260.0318,865.41552
3261.58614,865.41552
3263.14048,865.41552
3264.69482,865.41552
3266.24916,866.77187
3267.8035,866.77187
3269.35784,868.12822
3270.91217,869.48456
3272.46651,870.84091
3274.02085,872.19726
3275.57519,873.55361
3277.12953,873.55361
3278.68387,872.19726
3280.23821,870.84091
3281.79255,869.48456
3283.34688,868.12822
3284.90122,868.12822
3286.45556,868.12822
3288.0099,869.48456
3289.56424,869.48456
3291.11858,868.12822
3292.67292,866.77187
3294.22726,868.12822
3295.78159,869.48456
3297.33593,870.84091
3298.89027,870.84091
3300.44461,869.48456
3301.99895,869.48456
3303.55329,870.84091
3305.10763,870.84091
3306.66197,872.19726
3308.2163,873.55361
3309.77064,874.90996
3311.32498,874.90996
3312.87932,873.55361
3314.43366,872.19726
3315.988,872.19726
3317.54234,872.19726
3319.09668,872.19726
3320.65102,873.55361
3322.20535,873.55361
3323.75969,872.19726
3325.31403,872.19726
3326.86837,870.84091
3328.42271,870.84091
3329.97705,870.84091
3331.53139,870.84091
3333.08573,870.84091
3334.64006,870.84091
3336.1944,870.84091
3337.74874,870.84091
3339.30308,870.84091
3340.85742,869.48456
3342.41176,868.12822
3343.9661,866.77187
3345.52044,865.41552
3347.07477,864.05917
3348.62911,864.05917
3350.18345,864.05917
3351.73779,864.05917
3353.29213,864.05917
3354.84647,864.05917
3356.40081,864.05917
3357.95515,865.41552
3359.50948,865.41552
3361.06382,865.41552
3362.61816,865.41552
3364.1725,865.41552
3365.72684,866.77187
3367.28118,866.77187
3368.83552,868.12822
3370.38986,869.48456
3371.9442,869.48456
3373.49853,869.48456
3375.05287,868.12822
3376.60721,868.12822
3378.16155,866.77187
3379.71589,865.41552
3381.27023,866.77187
3382.82457,868.12822
3384.37891,869.48456
3385.93324,870.84091
3387.48758,872.19726
3389.04192,872.19726
3390.59626,872.19726
3392.1506,872.19726
3393.70494,872.19726
3395.25928,872.19726
3396.81362,872.19726
3398.36795,872.19726
3399.92229,872.19726
3401.47663,870.84091
3403.03097,870.84091
3404.58531,870.84091
3406.13965,870.84091
3407.69399,870.84091
3409.24833,869.48456
3410.80266,868.12822
3412.357,866.77187
3413.91134,865.41552
3415.46568,866.77187
3417.02002,868.12822
3418.57436,869.48456
3420.1287,869.48456
3421.68304,869.48456
3423.23737,869.48456
3424.79171,869.48456
3426.34605,869.48456
3427.90039,870.84091
3429.45473,869.48456
3431.00907,868.12822
3432.56341,868.12822
3434.11775,869.48456
3435.67209,870.84091
3437.22642,870.84091
3438.78076,870.84091
3440.3351,869.48456
3441.88944,868.12822
3443.44378,866.77187
3444.99812,865.41552
3446.55246,864.05917
3448.1068,864.05917
3449.66113,864.05917
3451.21547,864.05917
3452.76981,864.05917
3454.32415,865.41552
3455.87849,865.41552
3457.43283,865.41552
3458.98717,866.77187
3460.54151,868.12822
3462.09584,869.48456
3463.65018,869.48456
3465.20452,869.48456
3466.75886,869.48456
3468.3132,869.48456
3469.86754,869.48456
3471.42188,868.12822
3472.97622,866.77187
3474.53055,865.41552
3476.08489,865.41552
3477.63923,865.41552
3479.19357,864.05917
3480.74791,862.70283
3482.30225,862.70283
3483.85659,862.70283
3485.41093,862.70283
3486.96527,862.70283
3488.5196,864.05917
3490.07394,865.41552
3491.62828,865.41552
3493.18262,864.05917
3494.73696,864.05917
3496.2913,865.41552
3497.84564,864.05917
3499.39998,864.05917
3500.95431,864.05917
3502.50865,864.05917
3504.06299,865.41552
3505.61733,866.77187
3507.17167,865.41552
3508.72601,866.77187
3510.28035,868.12822
3511.83469,869.48456
3513.38902,870.84091
3514.94336,870.84091
3516.4977,870.84091
3518.05204,870.84091
3519.60638,870.84091
3521.16072,870.84091
3522.71506,870.84091
3524.2694,870.84091
3525.82373,869.48456
3527.37807,869.48456
3528.93241,869.48456
3530.48675,868.12822
3532.04109,866.77187
3533.59543,866.77187
3535.14977,866.77187
3536.70411,865.41552
3538.25844,864.05917
3539.81278,865.41552
3541.36712,866.77187
3542.92146,866.77187
3544.4758,866.77187
3546.03014,866.77187
3547.58448,866.77187
3549.13882,866.77187
3550.69316,868.12822
3552.24749,869.48456
3553.80183,869.48456
3555.35617,869.48456
3556.91051,869.48456
3558.46485,869.48456
3560.01919,870.84091
3561.57353,869.48456
3563.12787,869.48456
3564.6822,869.48456
3566.23654,869.48456
3567.79088,869.48456
3569.34522,869.48456
3570.89956,869.48456
3572.4539,868.12822
3574.00824,866.77187
3575.56258,865.41552
3577.11691,865.41552
3578.67125,865.41552
3580.22559,865.41552
3581.77993,865.41552
3583.33427,865.41552
3584.88861,865.41552
3586.44295,865.41552
3587.99729,866.77187
3589.55162,868.12822
3591.10596,869.48456
3592.6603,869.48456
3594.21464,870.84091
3595.76898,870.84091
3597.32332,869.48456
3598.87766,868.12822
3600.432,866.77187
3601.98634,865.41552
3603.54067,864.05917
3605.09501,862.70283
3606.64935,862.70283
3608.20369,864.05917
3609.75803,865.41552
3611.31237,866.77187
3612.86671,865.41552
3614.42105,864.05917
3615.97538,865.41552
3617.52972,866.77187
3619.08406,868.12822
3620.6384,869.48456
3622.19274,870.84091
3623.74708,870.84091
3625.30142,870.84091
3626.85576,870.84091
3628.41009,870.84091
3629.96443,870.84091
3631.51877,870.84091
3633.07311,870.84091
3634.62745,870.84091
3636.18179,869.48456
3637.73613,868.12822
3639.29047,868.12822
3640.8448,869.48456
3642.39914,869.48456
3643.95348,868.12822
3645.50782,866.77187
3647.06216,866.77187
3648.6165,868.12822
3650.17084,869.48456
3651.72518,869.48456
3653.27951,869.48456
3654.83385,869.48456
3656.38819,869.48456
3657.94253,869.48456
3659.49687,869.48456
3661.05121,869.48456
3662.60555,868.12822
3664.15989,868.12822
3665.71423,868.12822
3667.26856,868.12822
3668.8229,866.77187
3670.37724,868.12822
3671.93158,866.77187
3673.48592,866.77187
3675.04026,866.77187
3676.5946,865.41552
3678.14894,864.05917
3679.70327,864.05917
3681.25761,864.05917
3682.81195,864.05917
3684.36629,864.05917
3685.92063,865.41552
3687.47497,866.77187
3689.02931,868.12822
3690.58365,869.48456
3692.13798,870.84091
3693.69232,870.84091
3695.24666,869.48456
3696.801,868.12822
3698.35534,866.77187
3699.90968,865.41552
3701.46402,864.05917
3703.01836,862.70283
3704.57269,864.05917
3706.12703,865.41552
3707.68137,866.77187
3709.23571,866.77187
3710.79005,866.77187
3712.34439,866.77187
3713.89873,866.77187
3715.45307,866.77187
3717.00741,866.77187
3718.56174,866.77187
3720.11608,866.77187
3721.67042,865.41552
3723.22476,864.05917
3724.7791,865.41552
3726.33344,866.77187
3727.88778,866.77187
3729.44212,868.12822
3730.99645,868.12822
3732.55079,868.12822
3734.10513,868.12822
3735.65947,868.12822
3737.21381,868.12822
3738.76815,868.12822
3740.32249,868.12822
3741.87683,868.12822
3743.43116,868.12822
3744.9855,868.12822
3746.53984,868.12822
3748.09418,868.12822
3749.64852,868.12822
3751.20286,868.12822
3752.7572,866.77187
3754.31154,865.41552
3755.86587,864.05917
3757.42021,865.41552
3758.97455,866.77187
3760.52889,868.12822
3762.08323,868.12822
3763.63757,868.12822
3765.19191,868.12822
3766.74625,868.12822
3768.30058,866.77187
3769.85492,868.12822
3771.40926,868.12822
3772.9636,868.12822
3774.51794,868.12822
3776.07228,868.12822
3777.62662,868.12822
3779.18096,868.12822
3780.7353,868.12822
3782.28963,868.12822
3783.84397,868.12822
3785.39831,868.12822
3786.95265,868.12822
3788.50699,868.12822
3790.06133,868.12822
3791.61567,866.77187
3793.17001,865.41552
3794.72434,864.05917
3796.27868,862.70283
3797.83302,861.34648
3799.38736,859.99013
3800.9417,858.63378
3802.49604,858.63378
3804.05038,858.63378
3805.60472,858.63378
3807.15905,859.99013
3808.71339,859.99013
3810.26773,861.34648
3811.82207,862.70283
3813.37641,864.05917
3814.93075,865.41552
3816.48509,865.41552
3818.03943,865.41552
3819.59376,864.05917
3821.1481,862.70283
3822.70244,864.05917
3824.25678,865.41552
3825.81112,866.77187
3827.36546,866.77187
3828.9198,866.77187
3830.47414,866.77187
3832.02848,866.77187
3833.58281,868.12822
3835.13715,868.12822
3836.69149,868.12822
3838.24583,869.48456
3839.80017,868.12822
3841.35451,866.77187
3842.90885,868.12822
3844.46319,868.12822
3846.01752,868.12822
3847.57186,868.12822
3849.1262,868.12822
3850.68054,868.12822
3852.23488,868.12822
3853.78922,868.12822
3855.34356,868.12822
3856.8979,868.12822
3858.45223,868.12822
3860.00657,866.77187
3861.56091,866.77187
3863.11525,865.41552
3864.66959,864.05917
3866.22393,864.05917
3867.77827,864.05917
3869.33261,864.05917
3870.88694,864.05917
3872.44128,865.41552
3873.99562,865.41552
3875.54996,865.41552
3877.1043,865.41552
3878.65864,864.05917
3880.21298,862.70283
3881.76732,861.34648
3883.32165,861.34648
3884.87599,861.34648
3886.43033,862.70283
3887.98467,861.34648
3889.53901,861.34648
3891.09335,861.34648
3892.64769,861.34648
3894.20203,862.70283
3895.75637,862.70283
3897.3107,864.05917
3898.86504,865.41552
3900.41938,865.41552
3901.97372,864.05917
3903.52806,862.70283
3905.0824,862.70283
3906.63674,862.70283
3908.19108,861.34648
3909.74541,862.70283
3911.29975,864.05917
3912.85409,865.41552
3914.40843,864.05917
3915.96277,862.70283
3917.51711,862.70283
3919.07145,862.70283
3920.62579,861.34648
3922.18012,861.34648
3923.73446,862.70283
3925.2888,864.05917
3926.84314,862.70283
3928.39748,861.34648
3929.95182,859.99013
3931.50616,859.99013
3933.0605,859.99013
3934.61483,861.34648
3936.16917,862.70283
3937.72351,864.05917
3939.27785,865.41552
3940.83219,866.77187
3942.38653,866.77187
3947.04955,869.48456
3964.14727,869.48456
3965.70161,870.84091
3967.25595,870.84091
3968.81029,870.84091
3970.36463,870.84091
3971.91897,870.84091
3973.4733,870.84091
3975.02764,870.84091
3976.58198,870.84091
3978.13632,870.84091
3979.69066,869.48456
3981.245,869.48456
3982.79934,869.48456
3984.35368,869.48456
3987.46235,869.48456
3989.01669,869.48456
3990.57103,869.48456
