Raman shift,Intensity
762.87479,68.76341
765.08702,68.76341
767.29926,68.76341
769.51149,68.76341
771.72373,69.54432
773.93596,70.32523
776.1482,69.54432
778.36044,69.54432
780.57267,68.76341
782.78491,67.98249
784.99714,68.76341
787.20938,68.76341
789.42161,68.76341
791.63385,68.76341
793.84609,68.76341
796.05832,68.76341
798.27056,68.76341
800.48279,68.76341
802.69503,68.76341
804.90726,69.54432
807.1195,69.54432
809.33173,69.54432
811.54397,69.54432
813.75621,69.54432
815.96844,69.54432
818.18068,69.54432
820.39291,69.54432
822.60515,68.76341
824.81738,67.98249
827.02962,67.20158
829.24186,67.20158
831.45409,67.20158
831.45409,67.98249
833.66633,67.98249
835.87856,67.98249
835.87856,68.76341
838.0908,68.76341
838.0908,69.54432
838.0908,70.32523
838.0908,71.10614
838.0908,71.88706
838.0908,72.66797
840.30303,73.44888
842.51527,73.44888
844.72751,73.44888
846.93974,72.66797
849.15198,71.88706
851.36421,71.10614
853.57645,71.10614
855.78868,71.88706
855.78868,72.66797
855.78868,73.44888
855.78868,74.2298
855.78868,75.01071
855.78868,75.79162
858.00092,76.57253
860.21315,76.57253
862.42539,76.57253
862.42539,77.35345
864.63763,77.35345
866.84986,77.35345
866.84986,78.13436
869.0621,78.13436
871.27433,78.91527
873.48657,78.91527
875.6988,79.69619
877.91104,79.69619
880.12328,78.91527
882.33551,78.13436
884.54775,78.13436
886.75998,78.91527
888.97222,79.69619
891.18445,78.91527
891.18445,78.13436
891.18445,77.35345
891.18445,76.57253
891.18445,75.79162
891.18445,75.01071
893.39669,74.2298
895.60892,74.2298
897.82116,74.2298
897.82116,73.44888
900.0334,73.44888
902.24563,74.2298
904.45787,75.01071
906.6701,75.79162
908.88234,75.01071
911.09457,74.2298
913.30681,73.44888
915.51905,73.44888
917.73128,73.44888
919.94352,73.44888
922.15575,74.2298
922.15575,75.01071
922.15575,75.79162
922.15575,76.57253
922.15575,77.35345
922.15575,78.13436
922.15575,78.91527
924.36799,78.91527
926.58022,78.91527
926.58022,83.60075
926.58022,82.81984
926.58022,82.03892
926.58022,84.38166
928.79246,78.91527
928.79246,81.25801
928.79246,85.16258
931.0047,78.91527
931.0047,80.4771
931.0047,96.87627
931.0047,95.31444
931.0047,85.94349
931.0047,97.65718
933.21693,78.91527
933.21693,88.28623
933.21693,86.7244
933.21693,99.21901
933.21693,98.43809
933.21693,99.99992
933.21693,92.19079
933.21693,79.69619
933.21693,96.09535
933.21693,94.53353
935.42917,87.50531
935.42917,93.75262
935.42917,92.9717
935.42917,91.40988
935.42917,89.06714
935.42917,100.78083
937.6414,90.62896
937.6414,89.84805
937.6414,101.56174
939.85364,102.34266
939.85364,107.80905
939.85364,103.90448
942.06587,104.68539
942.06587,112.49452
942.06587,108.58996
942.06587,103.12357
942.06587,107.02813
942.06587,114.05635
942.06587,113.27544
944.27811,109.37087
944.27811,110.9327
944.27811,106.24722
944.27811,110.15178
944.27811,105.46631
944.27811,111.71361
944.27811,114.83726
944.27811,124.20821
944.27811,116.39909
944.27811,120.30365
946.49034,115.61817
946.49034,118.74183
946.49034,117.96091
946.49034,117.18
946.49034,121.08456
946.49034,122.64639
946.49034,128.11278
946.49034,123.4273
946.49034,119.52274
946.49034,124.98913
946.49034,132.79826
946.49034,128.89369
948.70258,126.55095
948.70258,121.86548
948.70258,127.33187
948.70258,129.6746
948.70258,125.77004
948.70258,132.01734
948.70258,139.04556
948.70258,138.26464
948.70258,133.57917
948.70258,142.16921
948.70258,137.48373
950.91482,131.23643
950.91482,135.92191
950.91482,135.14099
950.91482,130.45552
950.91482,136.70282
950.91482,139.82647
950.91482,142.95012
950.91482,141.3883
950.91482,134.36008
950.91482,146.07377
950.91482,146.85469
953.12705,143.73103
953.12705,145.29286
953.12705,140.60738
953.12705,144.51195
953.12705,147.6356
953.12705,155.44473
953.12705,152.32108
953.12705,171.06298
955.33929,150.75925
955.33929,151.54016
955.33929,149.19742
955.33929,153.10199
955.33929,166.37751
955.33929,154.66381
955.33929,148.41651
955.33929,156.22564
955.33929,171.84389
955.33929,172.62481
955.33929,158.56838
955.33929,159.34929
955.33929,170.28207
955.33929,173.40572
955.33929,149.97834
957.55152,157.00655
957.55152,157.78746
957.55152,160.1302
957.55152,164.81568
957.55152,165.59659
957.55152,153.8829
957.55152,167.15842
957.55152,167.93933
957.55152,168.72024
957.55152,169.50116
957.55152,164.03477
957.55152,174.18663
957.55152,174.96755
957.55152,176.52937
957.55152,175.74846
959.76376,162.47294
959.76376,163.25385
959.76376,160.91112
959.76376,161.69203
959.76376,176.52937
961.97599,176.52937
964.18823,176.52937
966.40047,177.31028
966.40047,178.0912
966.40047,178.87211
966.40047,179.65302
966.40047,180.43394
968.6127,180.43394
968.6127,181.21485
968.6127,181.99576
968.6127,182.77667
970.82494,182.77667
970.82494,181.99576
970.82494,181.21485
973.03717,180.43394
973.03717,179.65302
975.24941,178.87211
975.24941,166.37751
975.24941,165.59659
975.24941,164.81568
975.24941,160.91112
975.24941,161.69203
975.24941,160.1302
977.46164,175.74846
977.46164,174.96755
977.46164,162.47294
977.46164,171.06298
977.46164,176.52937
977.46164,154.66381
977.46164,178.0912
977.46164,167.15842
977.46164,157.00655
977.46164,156.22564
977.46164,169.50116
977.46164,170.28207
977.46164,164.03477
977.46164,172.62481
977.46164,153.8829
977.46164,159.34929
977.46164,173.40572
977.46164,174.18663
979.67388,163.25385
979.67388,158.56838
979.67388,157.78746
979.67388,167.93933
979.67388,168.72024
979.67388,171.84389
979.67388,177.31028
979.67388,155.44473
979.67388,153.10199
979.67388,148.41651
979.67388,149.19742
979.67388,150.75925
979.67388,149.97834
979.67388,146.85469
979.67388,146.07377
981.88611,147.6356
981.88611,151.54016
981.88611,152.32108
981.88611,145.29286
981.88611,142.16921
981.88611,142.95012
984.09835,143.73103
984.09835,144.51195
984.09835,141.3883
986.31059,140.60738
986.31059,134.36008
988.52282,139.04556
988.52282,127.33187
988.52282,131.23643
988.52282,133.57917
988.52282,124.20821
988.52282,135.14099
988.52282,139.82647
990.73506,136.70282
990.73506,132.79826
990.73506,132.01734
990.73506,137.48373
990.73506,138.26464
990.73506,129.6746
990.73506,128.89369
990.73506,128.11278
990.73506,130.45552
990.73506,126.55095
990.73506,102.34266
990.73506,124.98913
990.73506,135.92191
990.73506,123.4273
990.73506,120.30365
992.94729,121.86548
992.94729,121.08456
992.94729,122.64639
992.94729,119.52274
992.94729,114.05635
992.94729,117.96091
992.94729,117.18
992.94729,116.39909
992.94729,125.77004
992.94729,114.83726
992.94729,100.78083
992.94729,99.99992
992.94729,101.56174
992.94729,110.9327
992.94729,103.12357
995.15953,110.15178
995.15953,111.71361
995.15953,103.90448
995.15953,107.80905
995.15953,113.27544
995.15953,99.21901
995.15953,115.61817
995.15953,118.74183
997.37176,107.02813
997.37176,112.49452
997.37176,108.58996
997.37176,109.37087
997.37176,104.68539
997.37176,92.9717
997.37176,92.19079
997.37176,98.43809
997.37176,91.40988
999.584,106.24722
999.584,105.46631
999.584,93.75262
999.584,88.28623
999.584,90.62896
999.584,97.65718
999.584,96.87627
1001.79624,96.09535
1001.79624,85.94349
1001.79624,89.84805
1001.79624,94.53353
1001.79624,89.06714
1001.79624,87.50531
1001.79624,86.7244
1004.00847,95.31444
1004.00847,85.94349
1004.00847,85.16258
1004.00847,84.38166
1006.22071,83.60075
1008.43294,82.81984
1010.64518,82.81984
1012.85741,82.81984
1015.06965,83.60075
1017.28189,84.38166
1019.49412,83.60075
1021.70636,82.81984
1021.70636,83.60075
1021.70636,84.38166
1021.70636,85.16258
1021.70636,85.94349
1021.70636,86.7244
1023.91859,86.7244
1023.91859,87.50531
1023.91859,88.28623
1026.13083,89.06714
1028.34306,89.84805
1030.5553,89.84805
1032.76753,90.62896
1034.97977,90.62896
1037.19201,90.62896
1039.40424,90.62896
1039.40424,91.40988
1041.61648,92.19079
1041.61648,92.9717
1043.82871,92.9717
1043.82871,93.75262
1043.82871,94.53353
1046.04095,94.53353
1046.04095,95.31444
1046.04095,96.09535
1046.04095,96.87627
1046.04095,97.65718
1046.04095,98.43809
1046.04095,99.21901
1046.04095,99.99992
1048.25318,99.99992
1048.25318,100.78083
1050.46542,100.78083
1052.67766,99.99992
1054.88989,99.21901
1057.10213,99.99992
1059.31436,100.78083
1061.5266,100.78083
1063.73883,99.99992
1063.73883,99.21901
1063.73883,98.43809
1063.73883,97.65718
1063.73883,96.87627
1063.73883,96.09535
1065.95107,96.09535
1065.95107,95.31444
1068.16331,95.31444
1070.37554,95.31444
1072.58778,95.31444
1074.80001,95.31444
1077.01225,94.53353
1079.22448,94.53353
1079.22448,93.75262
1081.43672,93.75262
1081.43672,92.9717
1083.64895,92.9717
1083.64895,92.19079
1083.64895,91.40988
1085.86119,91.40988
1085.86119,90.62896
1088.07343,90.62896
1088.07343,89.84805
1090.28566,89.84805
1092.4979,89.06714
1092.4979,88.28623
1094.71013,88.28623
1094.71013,87.50531
1096.92237,87.50531
1096.92237,86.7244
1099.1346,85.94349
1099.1346,85.16258
1101.34684,85.16258
1101.34684,84.38166
1103.55908,84.38166
1103.55908,83.60075
1105.77131,83.60075
1105.77131,82.81984
1105.77131,82.03892
1105.77131,81.25801
1105.77131,80.4771
1105.77131,79.69619
1105.77131,78.91527
1105.77131,78.13436
1107.98355,78.13436
1110.19578,78.13436
1110.19578,77.35345
1112.40802,77.35345
1112.40802,76.57253
1114.62025,76.57253
1116.83249,76.57253
1119.04472,77.35345
1121.25696,78.13436
1123.4692,78.91527
1125.68143,78.91527
1127.89367,78.13436
1130.1059,78.13436
1132.31814,78.91527
1134.53037,78.91527
1136.74261,78.91527
1138.95485,78.91527
1141.16708,78.13436
1143.37932,78.13436
1145.59155,77.35345
1147.80379,77.35345
1150.01602,77.35345
1152.22826,78.13436
1154.4405,78.91527
1156.65273,78.91527
1158.86497,78.91527
1161.0772,79.69619
1163.28944,79.69619
1165.50167,79.69619
1167.71391,79.69619
1169.92614,78.91527
1172.13838,78.13436
1174.35062,78.13436
1176.56285,78.13436
1178.77509,78.13436
1180.98732,78.13436
1183.19956,78.13436
1185.41179,78.13436
1187.62403,77.35345
1189.83627,76.57253
1192.0485,75.79162
1194.26074,75.01071
1196.47297,75.01071
1198.68521,75.79162
1200.89744,76.57253
1203.10968,75.79162
1205.32192,76.57253
1207.53415,76.57253
1209.74639,76.57253
1211.95862,76.57253
1214.17086,77.35345
1216.38309,78.13436
1218.59533,78.91527
1220.80756,78.91527
1223.0198,79.69619
1225.23204,80.4771
1227.44427,80.4771
1229.65651,79.69619
1231.86874,78.91527
1234.08098,78.13436
1236.29321,78.13436
1238.50545,78.91527
1240.71769,79.69619
1242.92992,79.69619
1245.14216,79.69619
1247.35439,79.69619
1249.56663,78.91527
1251.77886,78.13436
1253.9911,77.35345
1256.20333,76.57253
1258.41557,76.57253
1260.62781,76.57253
1262.84004,77.35345
1265.05228,77.35345
1267.26451,77.35345
1269.47675,77.35345
1271.68898,77.35345
1273.90122,78.13436
1276.11346,78.91527
1278.32569,79.69619
1280.53793,80.4771
1282.75016,80.4771
1284.9624,80.4771
1287.17463,80.4771
1289.38687,79.69619
1291.59911,78.91527
1291.59911,78.13436
1291.59911,77.35345
1291.59911,76.57253
1291.59911,75.79162
1293.81134,75.01071
1296.02358,75.01071
1298.23581,75.79162
1300.44805,76.57253
1302.66028,77.35345
1304.87252,78.13436
1307.08475,78.91527
1309.29699,78.91527
1311.50923,78.13436
1313.72146,78.13436
1315.9337,77.35345
1318.14593,76.57253
1320.35817,75.79162
1322.5704,75.79162
1324.78264,76.57253
1326.99488,77.35345
1329.20711,78.13436
1331.41935,77.35345
1333.63158,77.35345
1335.84382,78.13436
1338.05605,78.91527
1340.26829,78.13436
1342.48052,78.91527
1344.69276,78.91527
1346.905,78.13436
1349.11723,78.13436
1351.32947,77.35345
1353.5417,77.35345
1355.75394,77.35345
1357.96617,77.35345
1360.17841,77.35345
1362.39065,76.57253
1364.60288,76.57253
1366.81512,76.57253
1369.02735,76.57253
1371.23959,76.57253
1373.45182,75.79162
1375.66406,75.01071
1377.8763,75.01071
1380.08853,75.01071
1382.30077,74.2298
1384.513,73.44888
1386.72524,72.66797
1388.93747,72.66797
1391.14971,72.66797
1393.36194,73.44888
1395.57418,73.44888
1397.78642,73.44888
1399.99865,73.44888
1402.21089,73.44888
1404.42312,74.2298
1406.63536,75.01071
1408.84759,75.79162
1411.05983,76.57253
1413.27207,75.79162
1415.4843,75.79162
1417.69654,75.79162
1419.90877,75.79162
1422.12101,75.01071
1422.12101,74.2298
1422.12101,73.44888
1422.12101,72.66797
1422.12101,71.88706
1422.12101,71.10614
1424.33324,71.10614
1426.54548,71.88706
1428.75772,72.66797
1430.96995,73.44888
1433.18219,73.44888
1435.39442,73.44888
1437.60666,73.44888
1439.81889,74.2298
1442.03113,74.2298
1444.24336,74.2298
1446.4556,73.44888
1448.66784,72.66797
1450.88007,73.44888
1453.09231,74.2298
1455.30454,75.01071
1457.51678,75.01071
1459.72901,75.01071
1461.94125,75.01071
1464.15349,74.2298
1466.36572,74.2298
1468.57796,74.2298
1470.79019,73.44888
1473.00243,73.44888
1475.21466,73.44888
1477.4269,73.44888
1479.63913,73.44888
1481.85137,73.44888
1484.06361,72.66797
1486.27584,72.66797
1488.48808,72.66797
1490.70031,71.88706
1492.91255,72.66797
1495.12478,72.66797
1497.33702,71.88706
1499.54926,71.88706
1501.76149,71.88706
1503.97373,72.66797
1506.18596,73.44888
1508.3982,74.2298
1510.61043,74.2298
1512.82267,74.2298
1515.03491,74.2298
1517.24714,73.44888
1519.45938,72.66797
1521.67161,71.88706
1523.88385,72.66797
1526.09608,73.44888
1528.30832,74.2298
1530.52055,74.2298
1532.73279,73.44888
1534.94503,72.66797
1537.15726,71.88706
1539.3695,72.66797
1541.58173,73.44888
1543.79397,74.2298
1546.0062,75.01071
1548.21844,75.01071
1550.43068,75.01071
1552.64291,75.01071
1554.85515,75.01071
1557.06738,74.2298
1559.27962,73.44888
1561.49185,73.44888
1563.70409,73.44888
1565.91633,73.44888
1568.12856,73.44888
1570.3408,72.66797
1572.55303,72.66797
1574.76527,73.44888
1576.9775,74.2298
1579.18974,73.44888
1581.40197,72.66797
1583.61421,71.88706
1585.82645,72.66797
1588.03868,73.44888
1590.25092,74.2298
1592.46315,75.01071
1594.67539,75.01071
1596.88762,75.01071
1599.09986,74.2298
1601.3121,74.2298
1603.52433,74.2298
1605.73657,73.44888
1607.9488,72.66797
1610.16104,73.44888
1612.37327,74.2298
1614.58551,75.01071
1616.79774,75.01071
1619.00998,75.01071
1621.22222,75.01071
1623.43445,75.01071
1625.64669,74.2298
1627.85892,73.44888
1630.07116,72.66797
1632.28339,71.88706
1634.49563,71.10614
1636.70787,71.10614
1638.9201,71.10614
1641.13234,71.10614
1643.34457,71.10614
1645.55681,71.88706
1647.76904,71.88706
1649.98128,72.66797
1652.19352,72.66797
1654.40575,72.66797
1656.61799,72.66797
1658.83022,73.44888
1661.04246,74.2298
1663.25469,75.01071
1665.46693,75.01071
1667.67916,75.01071
1669.8914,75.01071
1672.10364,75.01071
1674.31587,74.2298
1676.52811,74.2298
1678.74034,75.01071
1680.95258,75.01071
1683.16481,74.2298
1685.37705,73.44888
1687.58929,72.66797
1689.80152,71.88706
1692.01376,71.88706
1694.22599,71.88706
1696.43823,71.88706
1698.65046,71.88706
1700.8627,72.66797
1703.07493,73.44888
1705.28717,73.44888
1707.49941,73.44888
1709.71164,73.44888
1711.92388,73.44888
1714.13611,73.44888
1716.34835,73.44888
1718.56058,73.44888
1720.77282,73.44888
1722.98506,73.44888
1725.19729,74.2298
1727.40953,73.44888
1729.62176,73.44888
1731.834,73.44888
1734.04623,73.44888
1736.25847,73.44888
1738.47071,74.2298
1740.68294,74.2298
1742.89518,75.01071
1745.10741,75.01071
1747.31965,75.01071
1749.53188,75.01071
1751.74412,75.01071
1753.95635,75.01071
1756.16859,75.01071
1758.38083,75.79162
1760.59306,76.57253
1762.8053,77.35345
1765.01753,77.35345
1767.22977,76.57253
1769.442,77.35345
1771.65424,78.13436
1773.86648,78.91527
1776.07871,78.91527
1778.29095,78.91527
1780.50318,78.13436
1782.71542,78.13436
1784.92765,77.35345
1784.92765,76.57253
1787.13989,76.57253
1787.13989,75.79162
1789.35213,76.57253
1791.56436,77.35345
1793.7766,76.57253
1795.98883,76.57253
1798.20107,76.57253
1800.4133,76.57253
1802.62554,75.79162
1804.83777,76.57253
1807.05001,76.57253
1809.26225,76.57253
1811.47448,75.79162
1813.68672,75.79162
1815.89895,75.79162
1818.11119,75.01071
1820.32342,75.01071
1822.53566,75.79162
1824.7479,75.79162
1826.96013,75.01071
1829.17237,75.01071
1831.3846,75.01071
1833.59684,74.2298
1835.80907,74.2298
1838.02131,73.44888
1840.23354,73.44888
1842.44578,72.66797
1844.65802,71.88706
1846.87025,71.10614
1849.08249,71.10614
1851.29472,71.10614
1853.50696,71.10614
1855.71919,71.10614
1857.93143,71.10614
1860.14367,71.88706
1862.3559,71.88706
1864.56814,71.88706
1866.78037,71.88706
1868.99261,71.88706
1871.20484,71.88706
1873.41708,71.88706
1875.62932,72.66797
1877.84155,72.66797
1880.05379,72.66797
1882.26602,72.66797
1884.47826,73.44888
1886.69049,72.66797
1888.90273,71.88706
1891.11496,71.88706
1893.3272,71.88706
1895.53944,72.66797
1897.75167,71.88706
1899.96391,71.10614
1902.17614,71.10614
1904.38838,71.10614
1906.60061,71.88706
1908.81285,71.88706
1911.02509,72.66797
1913.23732,72.66797
1915.44956,72.66797
1917.66179,72.66797
1919.87403,72.66797
1922.08626,73.44888
1924.2985,74.2298
1926.51073,75.01071
1928.72297,75.79162
1930.93521,75.79162
1933.14744,75.79162
1935.35968,75.01071
1937.57191,75.01071
1939.78415,75.01071
1941.99638,74.2298
1944.20862,73.44888
1946.42086,73.44888
1948.63309,74.2298
1950.84533,75.01071
1953.05756,74.2298
1955.2698,73.44888
1957.48203,72.66797
1959.69427,72.66797
1961.90651,71.88706
1964.11874,72.66797
1966.33098,72.66797
1968.54321,72.66797
1970.75545,71.88706
1972.96768,71.10614
1975.17992,71.10614
1977.39215,71.10614
1979.60439,71.10614
1981.81663,71.10614
1984.02886,71.88706
1986.2411,71.88706
1988.45333,71.88706
1990.66557,71.88706
1992.8778,71.88706
1995.09004,72.66797
1997.30228,72.66797
1999.51451,72.66797
2001.72675,73.44888
2003.93898,72.66797
2006.15122,71.88706
2008.36345,71.88706
2010.57569,72.66797
2012.78793,72.66797
2015.00016,72.66797
2017.2124,72.66797
2019.42463,72.66797
2021.63687,72.66797
2023.8491,71.88706
2026.06134,71.10614
2028.27357,71.10614
2030.48581,71.10614
2032.69805,71.10614
2034.91028,71.10614
2037.12252,71.10614
2039.33475,71.10614
2041.54699,71.10614
2043.75922,71.10614
2045.97146,71.10614
2048.1837,71.10614
2050.39593,71.10614
2052.60817,71.10614
2054.8204,71.10614
2057.03264,71.10614
2059.24487,71.10614
2061.45711,71.10614
2063.66934,71.10614
2065.88158,71.10614
2068.09382,71.10614
2070.30605,71.10614
2072.51829,71.10614
2074.73052,71.10614
2076.94276,71.10614
2079.15499,71.10614
2081.36723,71.88706
2083.57947,72.66797
2085.7917,72.66797
2088.00394,72.66797
2090.21617,72.66797
2092.42841,72.66797
2094.64064,73.44888
2096.85288,74.2298
2099.06512,75.01071
2101.27735,75.01071
2103.48959,74.2298
2105.70182,75.01071
2107.91406,75.79162
2110.12629,75.79162
2112.33853,75.79162
2114.55076,75.79162
2116.763,75.79162
2118.97524,75.79162
2121.18747,75.79162
2123.39971,75.01071
2125.61194,74.2298
2127.82418,73.44888
2130.03641,74.2298
2132.24865,75.01071
2134.46089,75.01071
2136.67312,75.01071
2138.88536,75.01071
2141.09759,75.01071
2143.30983,75.01071
2145.52206,75.01071
2147.7343,75.01071
2149.94654,74.2298
2152.15877,74.2298
2154.37101,73.44888
2156.58324,73.44888
2158.79548,73.44888
2161.00771,73.44888
2163.21995,73.44888
2165.43218,73.44888
2167.64442,74.2298
2169.85666,74.2298
2172.06889,75.01071
2174.28113,75.79162
2176.49336,76.57253
2178.7056,75.79162
2180.91783,76.57253
2183.13007,77.35345
2185.34231,77.35345
2187.55454,77.35345
2189.76678,77.35345
2191.97901,76.57253
2194.19125,76.57253
2196.40348,75.79162
2198.61572,75.79162
2200.82795,75.79162
2203.04019,75.79162
2205.25243,75.79162
2207.46466,75.79162
2209.6769,76.57253
2211.88913,77.35345
2214.10137,78.13436
2216.3136,78.91527
2218.52584,78.91527
2220.73808,78.13436
2222.95031,77.35345
2225.16255,78.13436
2227.37478,78.13436
2229.58702,78.13436
2231.79925,78.13436
2234.01149,78.13436
2236.22373,78.13436
2238.43596,78.13436
2240.6482,77.35345
2242.86043,78.13436
2245.07267,78.13436
2247.2849,77.35345
2249.49714,77.35345
2251.70937,77.35345
2253.92161,77.35345
2256.13385,76.57253
2258.34608,75.79162
2260.55832,75.01071
2262.77055,75.01071
2264.98279,75.79162
2267.19502,75.79162
2269.40726,75.79162
2271.6195,76.57253
2273.83173,76.57253
2276.04397,75.79162
2278.2562,76.57253
2280.46844,77.35345
2282.68067,77.35345
2284.89291,76.57253
2287.10514,75.79162
2289.31738,75.01071
2291.52962,74.2298
2293.74185,74.2298
2295.95409,73.44888
2298.16632,73.44888
2300.37856,73.44888
2302.59079,73.44888
2304.80303,74.2298
2307.01527,73.44888
2309.2275,73.44888
2311.43974,74.2298
2311.43974,75.01071
2311.43974,75.79162
2311.43974,76.57253
2311.43974,77.35345
2311.43974,78.13436
2313.65197,78.13436
2315.86421,78.13436
2315.86421,78.91527
2315.86421,79.69619
2315.86421,80.4771
2318.07644,80.4771
2320.28868,80.4771
2320.28868,81.25801
2322.50092,80.4771
2324.71315,79.69619
2326.92539,80.4771
2329.13762,81.25801
2331.34986,81.25801
2333.56209,81.25801
2335.77433,81.25801
2337.98656,80.4771
2340.1988,79.69619
2340.1988,78.91527
2340.1988,78.13436
2340.1988,77.35345
2342.41104,77.35345
2344.62327,77.35345
2346.83551,77.35345
2349.04774,77.35345
2351.25998,78.13436
2353.47221,78.91527
2355.68445,78.91527
2357.89669,78.13436
2360.10892,78.91527
2362.32116,78.91527
2364.53339,78.13436
2366.74563,78.13436
2368.95786,78.13436
2371.1701,77.35345
2373.38234,77.35345
2375.59457,76.57253
2377.80681,75.79162
2380.01904,75.01071
2382.23128,75.01071
2384.44351,75.01071
2386.65575,75.01071
2388.86798,74.2298
2391.08022,73.44888
2393.29246,73.44888
2395.50469,73.44888
2397.71693,74.2298
2399.92916,74.2298
2402.1414,74.2298
2404.35363,74.2298
2406.56587,74.2298
2408.77811,74.2298
2410.99034,75.01071
2413.20258,75.79162
2415.41481,76.57253
2417.62705,77.35345
2419.83928,77.35345
2422.05152,77.35345
2424.26375,77.35345
2426.47599,76.57253
2428.68823,76.57253
2430.90046,76.57253
2433.1127,76.57253
2435.32493,75.79162
2437.53717,76.57253
2439.7494,76.57253
2441.96164,75.79162
2444.17388,75.01071
2446.38611,74.2298
2448.59835,74.2298
2450.81058,73.44888
2453.02282,73.44888
2455.23505,73.44888
2457.44729,73.44888
2459.65953,72.66797
2461.87176,72.66797
2464.084,72.66797
2466.29623,72.66797
2468.50847,73.44888
2470.7207,73.44888
2472.93294,73.44888
2475.14517,74.2298
2477.35741,74.2298
2477.35741,75.01071
2477.35741,75.79162
2479.56965,76.57253
2479.56965,77.35345
2479.56965,78.13436
2479.56965,78.91527
2481.78188,78.91527
2483.99412,78.13436
2486.20635,77.35345
2488.41859,76.57253
2490.63082,75.79162
2492.84306,75.79162
2495.0553,76.57253
2497.26753,77.35345
2499.47977,78.13436
2501.692,78.13436
2503.90424,77.35345
2506.11647,76.57253
2508.32871,77.35345
2510.54095,77.35345
2512.75318,78.13436
2514.96542,78.13436
2517.17765,78.13436
2519.38989,77.35345
2521.60212,76.57253
2523.81436,75.79162
2526.02659,75.01071
2528.23883,75.01071
2530.45107,74.2298
2532.6633,74.2298
2534.87554,74.2298
2537.08777,74.2298
2539.30001,75.01071
2541.51224,75.79162
2543.72448,76.57253
2545.93672,77.35345
2548.14895,77.35345
2550.36119,77.35345
2552.57342,76.57253
2554.78566,76.57253
2556.99789,76.57253
2559.21013,76.57253
2561.42236,75.79162
2563.6346,76.57253
2565.84684,77.35345
2568.05907,77.35345
2570.27131,76.57253
2572.48354,75.79162
2574.69578,75.01071
2576.90801,75.79162
2579.12025,76.57253
2581.33249,76.57253
2583.54472,76.57253
2585.75696,76.57253
2587.96919,75.79162
2590.18143,75.01071
2592.39366,74.2298
2594.6059,73.44888
2596.81814,74.2298
2599.03037,74.2298
2601.24261,75.01071
2601.24261,75.79162
2601.24261,76.57253
2603.45484,76.57253
2603.45484,77.35345
2603.45484,78.13436
2603.45484,78.91527
2605.66708,78.91527
2607.87931,78.91527
2610.09155,78.13436
2612.30378,77.35345
2614.51602,76.57253
2616.72826,76.57253
2618.94049,76.57253
2621.15273,77.35345
2623.36496,77.35345
2625.5772,78.13436
2627.78943,78.91527
2630.00167,79.69619
2632.21391,78.91527
2634.42614,78.91527
2636.63838,78.91527
2638.85061,78.91527
2641.06285,78.13436
2643.27508,78.13436
2643.27508,77.35345
2645.48732,76.57253
2645.48732,75.79162
2645.48732,75.01071
2645.48732,74.2298
2647.69955,73.44888
2649.91179,73.44888
2652.12403,73.44888
2654.33626,74.2298
2656.5485,75.01071
2658.76073,75.79162
2660.97297,76.57253
2663.1852,76.57253
2665.39744,75.79162
2667.60968,75.01071
2669.82191,74.2298
2672.03415,73.44888
2674.24638,73.44888
2676.45862,73.44888
2678.67085,73.44888
2680.88309,74.2298
2683.09533,74.2298
2685.30756,75.01071
2687.5198,74.2298
2689.73203,74.2298
2691.94427,74.2298
2694.1565,75.01071
2696.36874,74.2298
2698.58097,74.2298
2700.79321,74.2298
2703.00545,74.2298
2705.21768,74.2298
2707.42992,75.01071
2709.64215,75.01071
2711.85439,74.2298
2714.06662,73.44888
2716.27886,73.44888
2718.4911,74.2298
2720.70333,75.01071
2722.91557,74.2298
2725.1278,73.44888
2727.34004,73.44888
2729.55227,73.44888
2731.76451,73.44888
2733.97675,73.44888
2736.18898,74.2298
2738.40122,74.2298
2740.61345,74.2298
2742.82569,73.44888
2745.03792,72.66797
2747.25016,71.88706
2749.46239,71.88706
2751.67463,71.88706
2753.88687,72.66797
2756.0991,73.44888
2758.31134,74.2298
2760.52357,75.01071
2762.73581,75.79162
2764.94804,75.01071
2767.16028,75.01071
2769.37252,75.01071
2771.58475,75.01071
2773.79699,74.2298
2776.00922,73.44888
2778.22146,72.66797
2780.43369,71.88706
2782.64593,71.10614
2784.85816,71.88706
2787.0704,72.66797
2789.28264,72.66797
2791.49487,71.88706
2793.70711,71.10614
2795.91934,71.10614
2798.13158,71.10614
2800.34381,71.88706
2802.55605,72.66797
2804.76829,73.44888
2804.76829,74.2298
2806.98052,73.44888
2809.19276,72.66797
2811.40499,73.44888
2813.61723,73.44888
2815.82946,73.44888
2818.0417,74.2298
2820.25394,75.01071
2822.46617,75.79162
2824.67841,76.57253
2826.89064,76.57253
2829.10288,76.57253
2831.31511,75.79162
2833.52735,75.79162
2835.73958,75.79162
2837.95182,75.79162
2840.16406,75.79162
2842.37629,75.79162
2844.58853,75.01071
2846.80076,75.01071
2849.013,74.2298
2851.22523,73.44888
2853.43747,74.2298
2855.64971,75.01071
2857.86194,75.79162
2860.07418,75.79162
2862.28641,75.79162
2864.49865,75.79162
2866.71088,75.79162
2868.92312,75.01071
2871.13536,75.01071
2873.34759,75.01071
2875.55983,75.01071
2877.77206,75.79162
2879.9843,75.01071
2882.19653,74.2298
2884.40877,73.44888
2886.621,72.66797
2888.83324,72.66797
2891.04548,72.66797
2893.25771,71.88706
2895.46995,71.10614
2897.68218,71.10614
2899.89442,71.10614
2902.10665,71.10614
2904.31889,71.10614
2906.53113,71.88706
2908.74336,72.66797
2910.9556,73.44888
2913.16783,74.2298
2915.38007,75.01071
2917.5923,75.01071
2919.80454,75.01071
2922.01677,74.2298
2924.22901,74.2298
2926.44125,74.2298
2928.65348,74.2298
2930.86572,74.2298
2933.07795,74.2298
2935.29019,74.2298
2937.50242,74.2298
2939.71466,73.44888
2941.9269,73.44888
2944.13913,73.44888
2946.35137,72.66797
2948.5636,72.66797
2950.77584,72.66797
2952.98807,72.66797
2955.20031,72.66797
2957.41255,71.88706
2959.62478,71.10614
2961.83702,71.10614
2964.04925,71.88706
2966.26149,72.66797
2968.47372,73.44888
2970.68596,74.2298
2972.89819,75.01071
2975.11043,75.01071
2977.32267,75.01071
2979.5349,75.01071
2981.74714,74.2298
2983.95937,73.44888
2986.17161,73.44888
2988.38384,73.44888
2990.59608,73.44888
2992.80832,72.66797
2995.02055,71.88706
2997.23279,71.10614
2999.44502,70.32523
3001.65726,70.32523
3003.86949,71.10614
3006.08173,71.10614
3008.29396,71.88706
3008.29396,72.66797
3008.29396,73.44888
3008.29396,74.2298
3010.5062,73.44888
3012.71844,72.66797
3014.93067,72.66797
3017.14291,72.66797
3019.35514,71.88706
3021.56738,71.88706
3023.77961,71.88706
3025.99185,72.66797
3028.20409,73.44888
3030.41632,74.2298
3032.62856,75.01071
3034.84079,75.01071
3037.05303,75.01071
3039.26526,74.2298
3041.4775,74.2298
3043.68974,74.2298
3045.90197,74.2298
3048.11421,73.44888
3050.32644,74.2298
3052.53868,74.2298
3054.75091,74.2298
3056.96315,73.44888
3059.17538,74.2298
3061.38762,74.2298
3063.59986,73.44888
3065.81209,74.2298
3068.02433,75.01071
3070.23656,75.01071
3072.4488,74.2298
3074.66103,73.44888
3076.87327,73.44888
3079.08551,72.66797
3081.29774,72.66797
3083.50998,73.44888
3085.72221,74.2298
3087.93445,75.01071
3090.14668,74.2298
3092.35892,73.44888
3094.57116,73.44888
3096.78339,73.44888
3098.99563,72.66797
3101.20786,71.88706
3103.4201,71.88706
3105.63233,72.66797
3107.84457,73.44888
3110.0568,73.44888
3112.26904,73.44888
3114.48128,74.2298
3116.69351,75.01071
3118.90575,75.01071
3121.11798,74.2298
3123.33022,73.44888
3125.54245,72.66797
3127.75469,71.88706
3129.96693,71.88706
3132.17916,72.66797
3134.3914,73.44888
3136.60363,74.2298
3138.81587,75.01071
3141.0281,75.01071
3143.24034,75.01071
3145.45257,74.2298
3147.66481,74.2298
3149.87705,74.2298
3152.08928,74.2298
3154.30152,74.2298
3156.51375,73.44888
3158.72599,72.66797
3160.93822,71.88706
3163.15046,71.10614
3165.3627,71.88706
3167.57493,72.66797
3169.78717,72.66797
3171.9994,71.88706
3174.21164,71.88706
3176.42387,71.88706
3178.63611,72.66797
3180.84835,72.66797
3183.06058,72.66797
3185.27282,72.66797
3187.48505,73.44888
3189.69729,74.2298
3191.90952,75.01071
3194.12176,75.79162
3196.33399,75.01071
3198.54623,74.2298
3200.75847,73.44888
3202.9707,74.2298
3205.18294,75.01071
3207.39517,74.2298
3209.60741,74.2298
3211.81964,75.01071
3214.03188,74.2298
3216.24412,75.01071
3218.45635,75.79162
3220.66859,76.57253
3222.88082,76.57253
3225.09306,76.57253
3227.30529,77.35345
3229.51753,77.35345
3231.72976,76.57253
3233.942,76.57253
3236.15424,76.57253
3238.36647,75.79162
3240.57871,75.79162
3242.79094,75.79162
3245.00318,75.79162
3247.21541,75.79162
3249.42765,75.79162
3251.63989,75.79162
3253.85212,75.01071
3256.06436,75.01071
3258.27659,75.01071
3260.48883,75.01071
3262.70106,75.01071
3264.9133,74.2298
3267.12554,75.01071
3269.33777,75.01071
3271.55001,74.2298
3273.76224,73.44888
3275.97448,74.2298
3278.18671,74.2298
3280.39895,73.44888
3282.61118,73.44888
3284.82342,74.2298
3287.03566,75.01071
3289.24789,75.79162
3291.46013,76.57253
3293.67236,76.57253
3295.8846,75.79162
3298.09683,75.79162
3300.30907,75.79162
3302.52131,75.79162
3304.73354,75.79162
3306.94578,75.01071
3309.15801,75.01071
3311.37025,75.79162
3313.58248,76.57253
3315.79472,75.79162
3318.00696,75.01071
3320.21919,75.79162
3322.43143,75.79162
3324.64366,75.01071
3326.8559,75.79162
3329.06813,76.57253
3331.28037,77.35345
3333.4926,76.57253
3335.70484,75.79162
3337.91708,75.01071
3340.12931,74.2298
3342.34155,73.44888
3344.55378,73.44888
3346.76602,74.2298
3348.97825,74.2298
3351.19049,74.2298
3353.40273,74.2298
3355.61496,75.01071
3357.8272,75.79162
3360.03943,76.57253
3362.25167,76.57253
3364.4639,75.79162
3366.67614,76.57253
3368.88837,75.79162
3371.10061,75.01071
3373.31285,75.79162
3375.52508,75.79162
3377.73732,76.57253
3379.94955,76.57253
3382.16179,76.57253
3384.37402,75.79162
3386.58626,75.79162
3388.7985,75.79162
3391.01073,76.57253
3393.22297,77.35345
3395.4352,77.35345
3397.64744,76.57253
3399.85967,75.79162
3402.07191,76.57253
3404.28415,77.35345
3406.49638,78.13436
3408.70862,78.91527
3410.92085,78.13436
3413.13309,78.13436
3415.34532,78.13436
3417.55756,78.91527
3419.76979,78.91527
3421.98203,78.91527
3424.19427,78.91527
3426.4065,78.13436
3428.61874,78.91527
3430.83097,79.69619
3433.04321,78.91527
3435.25544,78.13436
3437.46768,77.35345
3439.67992,77.35345
3441.89215,78.13436
3444.10439,77.35345
3446.31662,76.57253
3448.52886,76.57253
3450.74109,77.35345
3452.95333,76.57253
3455.16557,76.57253
3457.3778,76.57253
3459.59004,76.57253
3461.80227,77.35345
3464.01451,77.35345
3466.22674,76.57253
3468.43898,76.57253
3470.65121,76.57253
3472.86345,76.57253
3475.07569,76.57253
3477.28792,77.35345
3479.50016,77.35345
3481.71239,78.13436
3483.92463,78.13436
3486.13686,78.13436
3488.3491,78.13436
3490.56134,78.13436
3492.77357,78.13436
3494.98581,78.13436
3497.19804,78.13436
3499.41028,78.91527
3501.62251,78.13436
3503.83475,78.13436
3506.04698,78.13436
3508.25922,78.91527
3510.47146,78.91527
3512.68369,79.69619
3514.89593,79.69619
3517.10816,78.91527
3519.3204,78.91527
3521.53263,78.91527
3523.74487,79.69619
3525.95711,80.4771
3528.16934,81.25801
3530.38158,82.03892
3532.59381,82.03892
3534.80605,82.03892
3537.01828,82.03892
3539.23052,82.03892
3541.44276,81.25801
3543.65499,81.25801
3545.86723,81.25801
3548.07946,81.25801
3550.2917,81.25801
3552.50393,81.25801
3554.71617,81.25801
3556.9284,80.4771
3559.14064,81.25801
3561.35288,81.25801
3563.56511,81.25801
3565.77735,81.25801
3567.98958,81.25801
3570.20182,81.25801
3572.41405,80.4771
3574.62629,80.4771
3576.83853,80.4771
3579.05076,79.69619
3581.263,79.69619
3583.47523,79.69619
3585.68747,78.91527
3587.8997,78.13436
3590.11194,78.13436
3592.32417,78.91527
3594.53641,79.69619
3596.74865,78.91527
3598.96088,79.69619
3601.17312,78.91527
3603.38535,78.91527
3605.59759,78.91527
3607.80982,78.13436
3610.02206,77.35345
3612.2343,77.35345
3614.44653,77.35345
3616.65877,77.35345
3618.871,77.35345
3621.08324,78.13436
3623.29547,78.91527
3625.50771,79.69619
3627.71995,79.69619
3629.93218,79.69619
3632.14442,79.69619
3634.35665,79.69619
3636.56889,79.69619
3638.78112,79.69619
3640.99336,79.69619
3643.20559,79.69619
3645.41783,78.91527
3647.63007,78.13436
3649.8423,77.35345
3652.05454,76.57253
3654.26677,77.35345
3656.47901,76.57253
3658.69124,76.57253
3660.90348,75.79162
3663.11572,76.57253
3665.32795,77.35345
3667.54019,77.35345
3669.75242,77.35345
3671.96466,77.35345
3674.17689,77.35345
3676.38913,77.35345
3678.60137,76.57253
3680.8136,76.57253
3683.02584,76.57253
3685.23807,77.35345
3687.45031,78.13436
3689.66254,78.91527
3691.87478,78.91527
3694.08701,78.91527
3696.29925,78.91527
3698.51149,78.91527
3700.72372,78.91527
3702.93596,78.91527
3705.14819,78.91527
3707.36043,78.91527
3709.57266,78.91527
3711.7849,78.13436
3713.99714,77.35345
3716.20937,76.57253
3718.42161,76.57253
3720.63384,76.57253
3722.84608,75.79162
3725.05831,75.01071
3727.27055,75.01071
3729.48278,75.01071
3731.69502,75.01071
3733.90726,75.01071
3736.11949,75.79162
3738.33173,76.57253
3740.54396,77.35345
3742.7562,76.57253
3744.96843,75.79162
3747.18067,75.79162
3749.39291,76.57253
3751.60514,77.35345
3753.81738,76.57253
3756.02961,77.35345
3758.24185,78.13436
3760.45408,77.35345
3762.66632,76.57253
3764.87856,77.35345
3767.09079,78.13436
3769.30303,78.13436
3771.51526,77.35345
3773.7275,76.57253
3775.93973,75.79162
3778.15197,75.01071
3780.3642,75.79162
3782.57644,76.57253
3784.78868,76.57253
3787.00091,76.57253
3789.21315,76.57253
3791.42538,77.35345
3793.63762,77.35345
3795.84985,77.35345
3798.06209,77.35345
3800.27433,77.35345
3802.48656,77.35345
3804.6988,76.57253
3806.91103,76.57253
3809.12327,76.57253
3811.3355,75.79162
3813.54774,75.01071
3815.75998,74.2298
3817.97221,74.2298
3820.18445,74.2298
3822.39668,74.2298
3824.60892,75.01071
3826.82115,75.79162
3829.03339,76.57253
3831.24562,77.35345
3833.45786,77.35345
3835.6701,77.35345
3837.88233,77.35345
3840.09457,76.57253
3842.3068,76.57253
3844.51904,76.57253
3846.73127,76.57253
3848.94351,76.57253
3851.15575,76.57253
3853.36798,75.79162
3855.58022,76.57253
3857.79245,77.35345
3860.00469,76.57253
3862.21692,75.79162
3864.42916,75.01071
3866.64139,75.79162
3868.85363,76.57253
3871.06587,76.57253
3873.2781,76.57253
3875.49034,76.57253
3875.49034,75.79162
3875.49034,75.01071
3877.70257,74.2298
3877.70257,73.44888
3877.70257,72.66797
3877.70257,71.88706
3879.91481,71.88706
3882.12704,72.66797
3884.33928,73.44888
3886.55152,74.2298
3888.76375,74.2298
3890.97599,74.2298
3893.18822,73.44888
3895.40046,72.66797
3897.61269,71.88706
3899.82493,71.10614
3902.03717,71.10614
3904.2494,71.88706
3906.46164,72.66797
3908.67387,71.88706
3910.88611,72.66797
3913.09834,72.66797
3915.31058,72.66797
3917.52281,72.66797
3919.73505,73.44888
3921.94729,73.44888
3924.15952,73.44888
3926.37176,73.44888
3928.58399,73.44888
3930.79623,73.44888
3933.00846,73.44888
3935.2207,74.2298
3937.43294,74.2298
3939.64517,74.2298
3941.85741,75.01071
3944.06964,75.01071
3946.28188,74.2298
3948.49411,73.44888
3950.70635,73.44888
3952.91858,74.2298
3955.13082,73.44888
3957.34306,73.44888
3959.55529,73.44888
3961.76753,73.44888
3963.97976,74.2298
3966.192,74.2298
3968.40423,73.44888
3970.61647,72.66797
3972.82871,72.66797
3975.04094,73.44888
3977.25318,73.44888
3979.46541,73.44888
3981.67765,73.44888
3983.88988,72.66797
3986.10212,73.44888
3988.31436,73.44888
3990.52659,73.44888
3992.73883,73.44888
3994.95106,73.44888
3997.1633,73.44888
3999.37553,73.44888
4001.58777,73.44888
4001.58777,72.66797
4001.58777,71.88706
4001.58777,71.10614
