Raman shift,Intensity
753.60413,70.86594
755.67159,70.86594
757.73905,70.86594
759.80651,70.86594
761.87398,70.86594
763.94144,70.86594
766.0089,70.86594
768.07636,70.86594
770.14383,71.57401
772.21129,72.28208
774.27875,72.28208
776.34621,72.28208
778.41368,72.28208
780.48114,72.28208
782.5486,72.28208
784.61606,72.28208
786.68353,72.28208
788.75099,72.28208
790.81845,72.28208
792.88591,72.28208
794.95338,72.28208
797.02084,72.28208
799.0883,72.28208
801.15576,72.28208
803.22323,72.28208
805.29069,72.28208
807.35815,72.28208
809.42561,72.28208
811.49308,72.28208
813.56054,72.28208
815.628,72.28208
817.69546,71.57401
819.76293,70.86594
821.83039,70.15786
823.89785,70.15786
825.96531,70.15786
828.03278,70.15786
830.10024,70.15786
832.1677,70.15786
834.23516,70.15786
836.30262,70.15786
838.37009,70.15786
840.43755,70.86594
842.50501,71.57401
844.57247,71.57401
846.63994,71.57401
848.7074,71.57401
850.77486,71.57401
852.84232,71.57401
854.90979,71.57401
856.97725,71.57401
859.04471,71.57401
861.11217,71.57401
863.17964,71.57401
865.2471,71.57401
867.31456,71.57401
869.38202,71.57401
871.44949,71.57401
873.51695,71.57401
875.58441,71.57401
877.65187,71.57401
879.71934,71.57401
881.7868,71.57401
883.85426,71.57401
885.92172,71.57401
887.98919,71.57401
890.05665,71.57401
892.12411,71.57401
894.19157,71.57401
896.25904,71.57401
898.3265,71.57401
900.39396,71.57401
902.46142,71.57401
904.52889,71.57401
906.59635,71.57401
908.66381,71.57401
910.73127,71.57401
912.79874,71.57401
914.8662,71.57401
916.93366,71.57401
919.00112,71.57401
921.06859,71.57401
923.13605,71.57401
925.20351,71.57401
927.27097,70.86594
929.33844,70.15786
931.4059,69.44979
933.47336,69.44979
935.54082,70.15786
937.60829,70.86594
939.67575,71.57401
941.74321,72.28208
943.81067,72.28208
945.87814,72.28208
947.9456,72.28208
950.01306,72.28208
952.08052,72.99016
954.14799,72.99016
956.21545,72.99016
958.28291,72.99016
960.35037,72.99016
962.41784,72.99016
964.4853,72.99016
966.55276,72.99016
968.62022,72.99016
970.68769,72.99016
972.75515,72.99016
974.82261,72.99016
976.89007,72.99016
978.95754,72.99016
981.025,72.99016
983.09246,72.99016
985.15992,72.99016
987.22739,72.99016
989.29485,72.99016
991.36231,72.99016
993.42977,72.99016
995.49724,72.99016
997.5647,72.99016
999.63216,72.99016
1001.69962,72.99016
1003.76709,72.99016
1005.83455,72.99016
1007.90201,72.99016
1009.96947,72.99016
1012.03694,72.99016
1014.1044,72.99016
1016.17186,72.99016
1018.23932,72.99016
1020.30679,72.99016
1022.37425,72.28208
1024.44171,72.28208
1026.50917,72.99016
1028.57663,73.69823
1030.6441,73.69823
1032.71156,73.69823
1034.77902,72.99016
1036.84648,72.28208
1038.91395,72.28208
1040.98141,72.28208
1040.98141,72.99016
1040.98141,73.69823
1040.98141,74.40631
1040.98141,75.11438
1040.98141,75.82245
1040.98141,76.53053
1040.98141,77.2386
1043.04887,77.2386
1045.11633,77.2386
1047.1838,77.2386
1049.25126,77.2386
1051.31872,77.2386
1051.31872,82.19511
1053.38618,78.65475
1053.38618,79.36282
1053.38618,77.94667
1053.38618,81.48704
1053.38618,92.81622
1053.38618,93.52429
1053.38618,82.90319
1055.45365,80.77897
1055.45365,92.10814
1055.45365,95.64851
1055.45365,96.35658
1055.45365,94.23236
1055.45365,83.61126
1055.45365,80.07089
1057.52111,87.15163
1057.52111,85.02741
1057.52111,89.98392
1057.52111,94.94044
1057.52111,91.40007
1057.52111,84.31933
1057.52111,87.8597
1057.52111,97.06466
1059.58857,85.73548
1059.58857,90.692
1059.58857,89.27585
1059.58857,88.56778
1059.58857,86.44356
1059.58857,97.77273
1061.65603,98.4808
1063.7235,99.18888
1063.7235,99.89695
1063.7235,100.60503
1063.7235,101.3131
1063.7235,108.39383
1063.7235,106.26961
1063.7235,103.43732
1063.7235,104.14539
1063.7235,112.64228
1063.7235,115.47457
1063.7235,109.10191
1063.7235,133.17641
1065.79096,106.97769
1065.79096,105.56154
1065.79096,102.02117
1065.79096,107.68576
1065.79096,110.51805
1065.79096,102.72925
1065.79096,111.9342
1065.79096,104.85347
1065.79096,113.35035
1065.79096,132.46833
1065.79096,114.7665
1065.79096,111.22613
1065.79096,116.18264
1065.79096,109.80998
1065.79096,133.88448
1065.79096,136.0087
1065.79096,121.13916
1065.79096,119.72301
1065.79096,120.43108
1065.79096,135.30063
1065.79096,134.59255
1067.85842,119.01494
1067.85842,118.30686
1067.85842,136.71677
1067.85842,123.26338
1067.85842,114.05842
1067.85842,121.84723
1067.85842,126.80375
1067.85842,127.51182
1067.85842,117.59879
1067.85842,116.89072
1067.85842,131.76026
1069.92588,122.5553
1069.92588,131.05219
1069.92588,123.97145
1069.92588,124.67952
1069.92588,125.3876
1069.92588,128.21989
1069.92588,126.09567
1069.92588,137.42485
1071.99335,129.63604
1071.99335,128.92797
1071.99335,130.34411
1071.99335,138.13292
1071.99335,140.25714
1074.06081,139.54907
1074.06081,138.841
1074.06081,140.96522
1074.06081,160.0832
1074.06081,142.38136
1074.06081,143.08944
1074.06081,149.4621
1074.06081,159.37513
1074.06081,157.95898
1074.06081,146.6298
1076.12827,145.92173
1076.12827,144.50558
1076.12827,143.79751
1076.12827,141.67329
1076.12827,160.79127
1076.12827,147.33788
1076.12827,158.66705
1076.12827,145.21366
1076.12827,157.25091
1076.12827,153.00247
1076.12827,153.71054
1076.12827,154.41861
1076.12827,162.91549
1076.12827,162.20742
1076.12827,167.16394
1076.12827,164.33164
1076.12827,148.75402
1076.12827,163.62357
1076.12827,150.17017
1076.12827,161.49935
1078.19573,152.29439
1078.19573,151.58632
1078.19573,167.87201
1078.19573,155.12669
1078.19573,150.87824
1078.19573,148.04595
1078.19573,165.03972
1078.19573,165.74779
1078.19573,166.45586
1078.19573,156.54283
1078.19573,168.58008
1080.2632,155.83476
1080.2632,168.58008
1082.33066,168.58008
1082.33066,169.28816
1084.39812,169.28816
1086.46558,169.28816
1086.46558,169.99623
1086.46558,170.7043
1086.46558,171.41238
1086.46558,172.12045
1086.46558,172.82852
1088.53305,172.82852
1090.60051,172.82852
1092.66797,173.5366
1092.66797,174.24467
1092.66797,174.95274
1094.73543,168.58008
1094.73543,169.28816
1096.8029,167.87201
1096.8029,170.7043
1096.8029,169.99623
1098.87036,172.12045
1098.87036,172.82852
1098.87036,171.41238
1098.87036,167.16394
1098.87036,166.45586
1098.87036,165.74779
1098.87036,162.91549
1098.87036,164.33164
1098.87036,163.62357
1098.87036,157.25091
1098.87036,143.79751
1098.87036,161.49935
1098.87036,160.0832
1098.87036,157.95898
1098.87036,159.37513
1100.93782,158.66705
1100.93782,160.79127
1100.93782,165.03972
1100.93782,156.54283
1100.93782,143.08944
1100.93782,162.20742
1100.93782,141.67329
1100.93782,142.38136
1100.93782,144.50558
1103.00528,155.12669
1103.00528,155.83476
1103.00528,145.21366
1103.00528,146.6298
1103.00528,147.33788
1103.00528,140.96522
1103.00528,139.54907
1105.07275,148.04595
1105.07275,130.34411
1105.07275,145.92173
1105.07275,127.51182
1105.07275,138.841
1105.07275,131.05219
1105.07275,153.00247
1105.07275,153.71054
1105.07275,154.41861
1105.07275,132.46833
1105.07275,140.25714
1105.07275,152.29439
1105.07275,128.21989
1105.07275,131.76026
1107.14021,151.58632
1107.14021,150.87824
1107.14021,128.92797
1107.14021,129.63604
1107.14021,150.17017
1107.14021,119.72301
1107.14021,138.13292
1107.14021,148.75402
1107.14021,133.17641
1107.14021,123.26338
1107.14021,123.97145
1107.14021,124.67952
1107.14021,126.80375
1109.20767,136.71677
1109.20767,137.42485
1109.20767,136.0087
1109.20767,126.09567
1109.20767,125.3876
1109.20767,135.30063
1109.20767,134.59255
1109.20767,133.88448
1109.20767,122.5553
1109.20767,149.4621
1109.20767,121.13916
1109.20767,120.43108
1109.20767,119.01494
1109.20767,117.59879
1111.27513,118.30686
1111.27513,121.84723
1111.27513,116.89072
1111.27513,111.9342
1111.27513,115.47457
1111.27513,114.7665
1111.27513,114.05842
1111.27513,109.80998
1111.27513,112.64228
1111.27513,111.22613
1111.27513,110.51805
1113.3426,116.18264
1113.3426,113.35035
1113.3426,109.10191
1113.3426,106.97769
1115.41006,108.39383
1115.41006,107.68576
1115.41006,106.26961
1117.47752,105.56154
1119.54498,104.85347
1119.54498,104.14539
1121.61245,103.43732
1121.61245,102.72925
1121.61245,102.02117
1121.61245,101.3131
1123.67991,100.60503
1123.67991,99.89695
1123.67991,94.23236
1123.67991,98.4808
1123.67991,97.77273
1123.67991,97.06466
1125.74737,96.35658
1125.74737,95.64851
1125.74737,94.94044
1125.74737,99.18888
1125.74737,93.52429
1125.74737,92.81622
1125.74737,92.10814
1125.74737,91.40007
1125.74737,90.692
1125.74737,89.98392
1125.74737,89.27585
1127.81483,88.56778
1127.81483,77.2386
1127.81483,77.94667
1129.8823,87.8597
1129.8823,77.2386
1129.8823,87.15163
1129.8823,86.44356
1129.8823,78.65475
1131.94976,85.73548
1131.94976,82.19511
1131.94976,81.48704
1131.94976,77.2386
1131.94976,82.90319
1131.94976,79.36282
1134.01722,80.07089
1134.01722,83.61126
1134.01722,84.31933
1134.01722,85.02741
1134.01722,80.77897
1134.01722,77.2386
1136.08468,77.2386
1138.15215,77.2386
1138.15215,76.53053
1140.21961,76.53053
1140.21961,75.82245
1140.21961,75.11438
1140.21961,74.40631
1140.21961,73.69823
1140.21961,72.99016
1140.21961,72.28208
1140.21961,71.57401
1142.28707,71.57401
1144.35453,71.57401
1144.35453,70.86594
1146.422,71.57401
1148.48946,72.28208
1150.55692,72.99016
1152.62438,73.69823
1154.69185,72.99016
1156.75931,72.99016
1158.82677,73.69823
1160.89423,72.99016
1162.9617,72.99016
1165.02916,72.99016
1167.09662,72.99016
1169.16408,72.99016
1171.23155,72.99016
1173.29901,72.99016
1175.36647,72.99016
1177.43393,72.99016
1179.5014,72.99016
1181.56886,72.99016
1183.63632,72.28208
1185.70378,71.57401
1187.77125,70.86594
1189.83871,70.15786
1191.90617,69.44979
1193.97363,69.44979
1196.0411,69.44979
1198.10856,69.44979
1200.17602,69.44979
1202.24348,69.44979
1204.31095,69.44979
1206.37841,69.44979
1208.44587,69.44979
1210.51333,69.44979
1212.5808,69.44979
1214.64826,69.44979
1216.71572,69.44979
1218.78318,69.44979
1220.85064,69.44979
1222.91811,69.44979
1224.98557,69.44979
1227.05303,69.44979
1229.12049,69.44979
1231.18796,69.44979
1233.25542,69.44979
1235.32288,69.44979
1237.39034,69.44979
1239.45781,69.44979
1241.52527,69.44979
1243.59273,69.44979
1245.66019,69.44979
1247.72766,69.44979
1249.79512,69.44979
1251.86258,69.44979
1253.93004,69.44979
1255.99751,69.44979
1258.06497,69.44979
1260.13243,69.44979
1262.19989,69.44979
1264.26736,69.44979
1266.33482,69.44979
1268.40228,69.44979
1270.46974,69.44979
1272.53721,69.44979
1274.60467,69.44979
1276.67213,69.44979
1278.73959,69.44979
1280.80706,69.44979
1282.87452,69.44979
1284.94198,69.44979
1287.00944,69.44979
1289.07691,69.44979
1291.14437,69.44979
1293.21183,69.44979
1295.27929,69.44979
1297.34676,69.44979
1299.41422,69.44979
1301.48168,69.44979
1303.54914,69.44979
1305.61661,69.44979
1307.68407,69.44979
1309.75153,69.44979
1311.81899,69.44979
1313.88646,69.44979
1315.95392,69.44979
1318.02138,69.44979
1320.08884,69.44979
1322.15631,69.44979
1324.22377,69.44979
1326.29123,69.44979
1328.35869,69.44979
1330.42616,69.44979
1332.49362,69.44979
1334.56108,69.44979
1336.62854,69.44979
1338.69601,69.44979
1340.76347,69.44979
1342.83093,69.44979
1344.89839,69.44979
1346.96586,69.44979
1349.03332,69.44979
1351.10078,69.44979
1353.16824,69.44979
1355.23571,69.44979
1357.30317,69.44979
1359.37063,69.44979
1361.43809,69.44979
1363.50556,69.44979
1365.57302,69.44979
1367.64048,69.44979
1369.70794,69.44979
1371.77541,69.44979
1373.84287,69.44979
1375.91033,69.44979
1377.97779,69.44979
1380.04526,69.44979
1382.11272,69.44979
1384.18018,69.44979
1386.24764,69.44979
1388.31511,69.44979
1390.38257,69.44979
1392.45003,69.44979
1394.51749,69.44979
1396.58496,70.15786
1398.65242,70.15786
1400.71988,70.15786
1402.78734,70.15786
1404.85481,70.15786
1406.92227,70.15786
1408.98973,70.15786
1411.05719,70.15786
1413.12465,70.86594
1415.19212,70.86594
1417.25958,70.15786
1419.32704,70.15786
1421.3945,70.15786
1423.46197,70.15786
1425.52943,70.15786
1427.59689,70.15786
1429.66435,70.86594
1431.73182,70.86594
1433.79928,70.86594
1435.86674,70.86594
1437.9342,71.57401
1440.00167,70.86594
1442.06913,70.86594
1444.13659,70.86594
1446.20405,71.57401
1448.27152,72.28208
1450.33898,72.28208
1452.40644,71.57401
1454.4739,71.57401
1456.54137,72.28208
1458.60883,72.28208
1460.67629,72.99016
1462.74375,73.69823
1464.81122,74.40631
1466.87868,75.11438
1468.94614,74.40631
1471.0136,73.69823
1473.08107,72.99016
1475.14853,72.99016
1477.21599,73.69823
1479.28345,73.69823
1481.35092,73.69823
1483.41838,72.99016
1485.48584,72.99016
1487.5533,72.99016
1489.62077,73.69823
1491.68823,73.69823
1493.75569,73.69823
1495.82315,73.69823
1497.89062,73.69823
1499.95808,72.99016
1502.02554,72.28208
1504.093,71.57401
1506.16047,70.86594
1508.22793,70.86594
1510.29539,71.57401
1512.36285,71.57401
1514.43032,71.57401
1516.49778,72.28208
1518.56524,72.28208
1520.6327,72.28208
1522.70017,72.28208
1524.76763,71.57401
1526.83509,70.86594
1528.90255,70.15786
1530.97002,70.15786
1533.03748,70.86594
1535.10494,71.57401
1537.1724,71.57401
1539.23987,71.57401
1541.30733,71.57401
1543.37479,71.57401
1545.44225,71.57401
1547.50972,71.57401
1549.57718,70.86594
1551.64464,70.15786
1553.7121,69.44979
1555.77957,69.44979
1557.84703,69.44979
1559.91449,69.44979
1561.98195,69.44979
1564.04942,69.44979
1566.11688,69.44979
1568.18434,69.44979
1570.2518,69.44979
1572.31927,69.44979
1574.38673,69.44979
1576.45419,69.44979
1578.52165,69.44979
1580.58912,70.15786
1582.65658,70.15786
1584.72404,70.15786
1586.7915,70.15786
1588.85897,70.15786
1590.92643,70.15786
1592.99389,70.15786
1595.06135,70.86594
1597.12882,70.86594
1599.19628,70.86594
1601.26374,70.86594
1603.3312,71.57401
1605.39867,71.57401
1607.46613,71.57401
1609.53359,70.86594
1611.60105,70.15786
1613.66851,70.86594
1615.73598,70.86594
1617.80344,70.86594
1619.8709,70.86594
1621.93836,70.86594
1624.00583,70.86594
1626.07329,70.15786
1628.14075,69.44979
1630.20821,69.44979
1632.27568,69.44979
1634.34314,69.44979
1636.4106,69.44979
1638.47806,69.44979
1640.54553,69.44979
1642.61299,69.44979
1644.68045,69.44979
1646.74791,69.44979
1648.81538,69.44979
1650.88284,69.44979
1652.9503,69.44979
1655.01776,69.44979
1657.08523,69.44979
1659.15269,69.44979
1661.22015,69.44979
1663.28761,69.44979
1665.35508,69.44979
1667.42254,69.44979
1669.49,69.44979
1671.55746,69.44979
1673.62493,69.44979
1675.69239,69.44979
1677.75985,69.44979
1679.82731,69.44979
1681.89478,69.44979
1683.96224,69.44979
1686.0297,69.44979
1688.09716,70.15786
1690.16463,70.15786
1692.23209,70.15786
1694.29955,70.15786
1696.36701,70.15786
1698.43448,70.15786
1700.50194,70.86594
1702.5694,71.57401
1704.63686,72.28208
1706.70433,72.99016
1708.77179,72.99016
1710.83925,72.99016
1712.90671,72.99016
1714.97418,72.99016
1717.04164,72.28208
1719.1091,72.28208
1721.17656,72.28208
1723.24403,72.99016
1725.31149,73.69823
1727.37895,72.99016
1729.44641,72.99016
1731.51388,72.99016
1733.58134,72.99016
1735.6488,72.28208
1737.71626,72.99016
1739.78373,73.69823
1741.85119,73.69823
1743.91865,73.69823
1745.98611,73.69823
1748.05358,73.69823
1750.12104,74.40631
1752.1885,74.40631
1754.25596,74.40631
1756.32343,74.40631
1758.39089,73.69823
1760.45835,74.40631
1762.52581,74.40631
1764.59328,74.40631
1766.66074,73.69823
1768.7282,72.99016
1770.79566,72.28208
1772.86313,71.57401
1774.93059,71.57401
1776.99805,71.57401
1779.06551,71.57401
1781.13298,71.57401
1783.20044,71.57401
1785.2679,71.57401
1787.33536,71.57401
1789.40283,72.28208
1791.47029,72.99016
1793.53775,73.69823
1795.60521,73.69823
1797.67268,73.69823
1799.74014,73.69823
1801.8076,73.69823
1803.87506,73.69823
1805.94252,73.69823
1808.00999,72.99016
1810.07745,72.28208
1812.14491,72.28208
1814.21237,72.28208
1816.27984,72.28208
1818.3473,72.28208
1820.41476,72.28208
1822.48222,72.28208
1824.54969,72.28208
1826.61715,72.28208
1828.68461,72.99016
1830.75207,72.99016
1832.81954,73.69823
1834.887,74.40631
1836.95446,74.40631
1839.02192,73.69823
1841.08939,73.69823
1843.15685,72.99016
1845.22431,72.99016
1847.29177,72.28208
1849.35924,72.99016
1851.4267,72.99016
1853.49416,72.99016
1855.56162,72.99016
1857.62909,72.99016
1859.69655,72.99016
1861.76401,72.99016
1863.83147,72.28208
1865.89894,72.99016
1867.9664,72.99016
1870.03386,72.99016
1872.10132,72.99016
1874.16879,72.99016
1876.23625,72.99016
1878.30371,72.28208
1880.37117,72.28208
1882.43864,72.28208
1884.5061,72.28208
1886.57356,72.28208
1888.64102,72.28208
1890.70849,72.28208
1892.77595,72.28208
1894.84341,72.28208
1896.91087,71.57401
1898.97834,70.86594
1901.0458,70.15786
1903.11326,69.44979
1905.18072,69.44979
1907.24819,69.44979
1909.31565,69.44979
1911.38311,69.44979
1913.45057,69.44979
1915.51804,69.44979
1917.5855,69.44979
1919.65296,69.44979
1921.72042,69.44979
1923.78789,69.44979
1925.85535,69.44979
1927.92281,69.44979
1929.99027,69.44979
1932.05774,69.44979
1934.1252,69.44979
1936.19266,69.44979
1938.26012,69.44979
1940.32759,69.44979
1942.39505,69.44979
1944.46251,69.44979
1946.52997,69.44979
1948.59744,69.44979
1950.6649,69.44979
1952.73236,69.44979
1954.79982,69.44979
1956.86729,69.44979
1958.93475,69.44979
1961.00221,69.44979
1963.06967,69.44979
1965.13714,69.44979
1967.2046,69.44979
1969.27206,69.44979
1971.33952,69.44979
1973.40699,69.44979
1975.47445,69.44979
1977.54191,69.44979
1979.60937,69.44979
1981.67684,69.44979
1983.7443,69.44979
1985.81176,70.15786
1987.87922,70.86594
1989.94669,71.57401
1992.01415,71.57401
1994.08161,71.57401
1996.14907,71.57401
1998.21653,71.57401
2000.284,71.57401
2002.35146,71.57401
2004.41892,70.86594
2006.48638,70.15786
2008.55385,69.44979
2010.62131,69.44979
2012.68877,69.44979
2014.75623,69.44979
2016.8237,69.44979
2018.89116,69.44979
2020.95862,69.44979
2023.02608,69.44979
2025.09355,69.44979
2027.16101,69.44979
2029.22847,69.44979
2031.29593,69.44979
2033.3634,69.44979
2035.43086,69.44979
2037.49832,69.44979
2039.56578,69.44979
2041.63325,69.44979
2043.70071,69.44979
2045.76817,69.44979
2047.83563,69.44979
2049.9031,69.44979
2051.97056,69.44979
2054.03802,69.44979
2056.10548,69.44979
2058.17295,69.44979
2060.24041,69.44979
2062.30787,69.44979
2064.37533,69.44979
2066.4428,69.44979
2068.51026,69.44979
2070.57772,69.44979
2072.64518,69.44979
2074.71265,69.44979
2076.78011,69.44979
2078.84757,69.44979
2080.91503,69.44979
2082.9825,69.44979
2085.04996,69.44979
2087.11742,69.44979
2089.18488,69.44979
2091.25235,69.44979
2093.31981,69.44979
2095.38727,69.44979
2097.45473,69.44979
2099.5222,69.44979
2101.58966,69.44979
2103.65712,69.44979
2105.72458,69.44979
2107.79205,69.44979
2109.85951,69.44979
2111.92697,69.44979
2113.99443,69.44979
2116.0619,69.44979
2118.12936,69.44979
2120.19682,69.44979
2122.26428,69.44979
2124.33175,69.44979
2126.39921,69.44979
2128.46667,69.44979
2130.53413,69.44979
2132.6016,69.44979
2134.66906,69.44979
2136.73652,69.44979
2138.80398,69.44979
2140.87145,69.44979
2142.93891,69.44979
2145.00637,69.44979
2147.07383,69.44979
2149.1413,69.44979
2151.20876,70.15786
2153.27622,70.15786
2155.34368,70.15786
2157.41115,70.15786
2159.47861,70.15786
2161.54607,70.15786
2163.61353,70.15786
2165.681,70.15786
2167.74846,70.15786
2169.81592,70.15786
2171.88338,70.15786
2173.95085,70.15786
2176.01831,70.15786
2178.08577,70.15786
2180.15323,70.15786
2182.2207,70.15786
2184.28816,70.15786
2186.35562,70.15786
2188.42308,70.15786
2190.49054,70.15786
2192.55801,70.15786
2194.62547,70.15786
2196.69293,70.15786
2198.76039,70.15786
2200.82786,70.15786
2202.89532,70.15786
2204.96278,70.86594
2207.03024,70.86594
2209.09771,70.86594
2211.16517,70.86594
2213.23263,70.86594
2215.30009,70.86594
2217.36756,70.86594
2219.43502,70.86594
2221.50248,70.86594
2223.56994,70.86594
2225.63741,71.57401
2227.70487,72.28208
2229.77233,72.99016
2231.83979,72.99016
2233.90726,72.99016
2235.97472,72.99016
2238.04218,72.99016
2240.10964,72.99016
2242.17711,72.28208
2244.24457,71.57401
2246.31203,70.86594
2248.37949,70.86594
2250.44696,70.86594
2252.51442,70.86594
2254.58188,70.86594
2256.64934,70.86594
2258.71681,70.86594
2260.78427,70.15786
2262.85173,69.44979
2264.91919,69.44979
2266.98666,69.44979
2269.05412,69.44979
2271.12158,69.44979
2273.18904,69.44979
2275.25651,69.44979
2277.32397,69.44979
2279.39143,69.44979
2281.45889,69.44979
2283.52636,69.44979
2285.59382,69.44979
2287.66128,69.44979
2289.72874,69.44979
2291.79621,69.44979
2293.86367,69.44979
2295.93113,69.44979
2297.99859,69.44979
2300.06606,69.44979
2302.13352,69.44979
2304.20098,69.44979
2306.26844,69.44979
2308.33591,69.44979
2310.40337,69.44979
2312.47083,69.44979
2314.53829,69.44979
2316.60576,69.44979
2318.67322,69.44979
2320.74068,69.44979
2322.80814,69.44979
2324.87561,69.44979
2326.94307,69.44979
2329.01053,69.44979
2331.07799,69.44979
2333.14546,69.44979
2335.21292,69.44979
2337.28038,69.44979
2339.34784,69.44979
2341.41531,69.44979
2343.48277,69.44979
2345.55023,69.44979
2347.61769,69.44979
2349.68516,69.44979
2351.75262,69.44979
2353.82008,69.44979
2355.88754,69.44979
2357.95501,69.44979
2360.02247,69.44979
2362.08993,69.44979
2364.15739,69.44979
2366.22486,69.44979
2368.29232,69.44979
2370.35978,69.44979
2372.42724,69.44979
2374.49471,69.44979
2376.56217,69.44979
2378.62963,69.44979
2380.69709,69.44979
2382.76455,69.44979
2384.83202,69.44979
2386.89948,69.44979
2388.96694,69.44979
2391.0344,69.44979
2393.10187,69.44979
2395.16933,69.44979
2397.23679,69.44979
2399.30425,69.44979
2401.37172,69.44979
2403.43918,69.44979
2405.50664,69.44979
2407.5741,69.44979
2409.64157,69.44979
2411.70903,69.44979
2413.77649,69.44979
2415.84395,69.44979
2417.91142,69.44979
2419.97888,69.44979
2422.04634,69.44979
2424.1138,69.44979
2426.18127,69.44979
2428.24873,69.44979
2430.31619,69.44979
2432.38365,69.44979
2434.45112,69.44979
2436.51858,69.44979
2438.58604,69.44979
2440.6535,69.44979
2442.72097,69.44979
2444.78843,69.44979
2446.85589,69.44979
2448.92335,69.44979
2450.99082,69.44979
2453.05828,69.44979
2455.12574,69.44979
2457.1932,69.44979
2459.26067,69.44979
2461.32813,69.44979
2463.39559,69.44979
2465.46305,69.44979
2467.53052,69.44979
2469.59798,69.44979
2471.66544,69.44979
2473.7329,69.44979
2475.80037,69.44979
2477.86783,69.44979
2479.93529,69.44979
2482.00275,69.44979
2484.07022,69.44979
2486.13768,69.44979
2488.20514,69.44979
2490.2726,69.44979
2492.34007,69.44979
2494.40753,69.44979
2496.47499,69.44979
2498.54245,69.44979
2500.60992,69.44979
2502.67738,69.44979
2504.74484,69.44979
2506.8123,69.44979
2508.87977,69.44979
2510.94723,69.44979
2513.01469,69.44979
2515.08215,69.44979
2517.14962,69.44979
2519.21708,69.44979
2521.28454,69.44979
2523.352,69.44979
2525.41947,69.44979
2527.48693,69.44979
2529.55439,69.44979
2531.62185,69.44979
2533.68932,69.44979
2535.75678,69.44979
2537.82424,69.44979
2539.8917,69.44979
2541.95917,69.44979
2544.02663,69.44979
2546.09409,69.44979
2548.16155,69.44979
2550.22902,69.44979
2552.29648,69.44979
2554.36394,69.44979
2556.4314,69.44979
2558.49887,69.44979
2560.56633,69.44979
2562.63379,69.44979
2564.70125,69.44979
2566.76872,69.44979
2568.83618,69.44979
2570.90364,69.44979
2572.9711,69.44979
2575.03857,69.44979
2577.10603,69.44979
2579.17349,69.44979
2581.24095,69.44979
2583.30841,69.44979
2585.37588,69.44979
2587.44334,69.44979
2589.5108,69.44979
2591.57826,69.44979
2593.64573,69.44979
2595.71319,69.44979
2597.78065,69.44979
2599.84811,69.44979
2601.91558,69.44979
2603.98304,69.44979
2606.0505,69.44979
2608.11796,69.44979
2610.18543,69.44979
2612.25289,69.44979
2614.32035,69.44979
2616.38781,69.44979
2618.45528,69.44979
2620.52274,69.44979
2622.5902,69.44979
2624.65766,69.44979
2626.72513,69.44979
2628.79259,69.44979
2630.86005,69.44979
2632.92751,69.44979
2634.99498,69.44979
2637.06244,69.44979
2639.1299,69.44979
2641.19736,69.44979
2643.26483,69.44979
2645.33229,69.44979
2647.39975,69.44979
2649.46721,69.44979
2651.53468,69.44979
2653.60214,69.44979
2655.6696,69.44979
2657.73706,69.44979
2659.80453,69.44979
2661.87199,69.44979
2663.93945,69.44979
2666.00691,69.44979
2668.07438,69.44979
2670.14184,69.44979
2672.2093,69.44979
2674.27676,69.44979
2676.34423,69.44979
2678.41169,69.44979
2680.47915,69.44979
2682.54661,69.44979
2684.61408,69.44979
2686.68154,69.44979
2688.749,69.44979
2690.81646,69.44979
2692.88393,69.44979
2694.95139,69.44979
2697.01885,69.44979
2699.08631,69.44979
2701.15378,69.44979
2703.22124,69.44979
2705.2887,69.44979
2707.35616,69.44979
2709.42363,69.44979
2711.49109,69.44979
2713.55855,69.44979
2715.62601,69.44979
2717.69348,69.44979
2719.76094,69.44979
2721.8284,69.44979
2723.89586,69.44979
2725.96333,69.44979
2728.03079,69.44979
2730.09825,69.44979
2732.16571,69.44979
2734.23318,69.44979
2736.30064,69.44979
2738.3681,69.44979
2740.43556,69.44979
2742.50303,69.44979
2744.57049,69.44979
2746.63795,69.44979
2748.70541,69.44979
2750.77288,69.44979
2752.84034,69.44979
2754.9078,69.44979
2756.97526,69.44979
2759.04273,69.44979
2761.11019,69.44979
2763.17765,69.44979
2765.24511,69.44979
2767.31258,69.44979
2769.38004,69.44979
2771.4475,69.44979
2773.51496,69.44979
2775.58242,69.44979
2777.64989,69.44979
2779.71735,69.44979
2781.78481,69.44979
2783.85227,69.44979
2785.91974,69.44979
2787.9872,69.44979
2790.05466,69.44979
2792.12212,69.44979
2794.18959,69.44979
2796.25705,69.44979
2798.32451,69.44979
2800.39197,69.44979
2802.45944,69.44979
2804.5269,69.44979
2806.59436,69.44979
2808.66182,69.44979
2810.72929,69.44979
2812.79675,69.44979
2814.86421,69.44979
2816.93167,69.44979
2818.99914,69.44979
2821.0666,69.44979
2823.13406,69.44979
2825.20152,69.44979
2827.26899,69.44979
2829.33645,69.44979
2831.40391,69.44979
2833.47137,69.44979
2835.53884,69.44979
2837.6063,69.44979
2839.67376,69.44979
2841.74122,69.44979
2843.80869,69.44979
2845.87615,69.44979
2847.94361,69.44979
2850.01107,69.44979
2852.07854,69.44979
2854.146,69.44979
2856.21346,69.44979
2858.28092,69.44979
2860.34839,69.44979
2862.41585,69.44979
2864.48331,69.44979
2866.55077,69.44979
2868.61824,69.44979
2870.6857,69.44979
2872.75316,69.44979
2874.82062,69.44979
2876.88809,69.44979
2878.95555,69.44979
2881.02301,69.44979
2883.09047,69.44979
2885.15794,69.44979
2887.2254,69.44979
2889.29286,69.44979
2891.36032,69.44979
2893.42779,69.44979
2895.49525,69.44979
2897.56271,69.44979
2899.63017,69.44979
2901.69764,69.44979
2903.7651,69.44979
2905.83256,69.44979
2907.90002,69.44979
2909.96749,69.44979
2912.03495,69.44979
2914.10241,69.44979
2916.16987,69.44979
2918.23734,69.44979
2920.3048,69.44979
2922.37226,69.44979
2924.43972,69.44979
2926.50719,69.44979
2928.57465,69.44979
2930.64211,69.44979
2932.70957,69.44979
2934.77704,69.44979
2936.8445,69.44979
2938.91196,69.44979
2940.97942,69.44979
2943.04689,69.44979
2945.11435,69.44979
2947.18181,69.44979
2949.24927,69.44979
2951.31674,69.44979
2953.3842,69.44979
2955.45166,69.44979
2957.51912,69.44979
2959.58659,69.44979
2961.65405,69.44979
2963.72151,69.44979
2965.78897,69.44979
2967.85643,69.44979
2969.9239,69.44979
2971.99136,69.44979
2974.05882,69.44979
2976.12628,69.44979
2978.19375,69.44979
2980.26121,69.44979
2982.32867,69.44979
2984.39613,69.44979
2986.4636,69.44979
2988.53106,69.44979
2990.59852,69.44979
2992.66598,69.44979
2994.73345,69.44979
2996.80091,69.44979
2998.86837,69.44979
3000.93583,69.44979
3003.0033,69.44979
3005.07076,69.44979
3007.13822,69.44979
3009.20568,69.44979
3011.27315,69.44979
3013.34061,69.44979
3015.40807,69.44979
3017.47553,69.44979
3019.543,69.44979
3021.61046,69.44979
3023.67792,69.44979
3025.74538,69.44979
3027.81285,69.44979
3029.88031,69.44979
3031.94777,69.44979
3034.01523,69.44979
3036.0827,69.44979
3038.15016,69.44979
3040.21762,69.44979
3042.28508,69.44979
3044.35255,69.44979
3046.42001,69.44979
3048.48747,69.44979
3050.55493,69.44979
3052.6224,69.44979
3054.68986,69.44979
3056.75732,69.44979
3058.82478,69.44979
3060.89225,69.44979
3062.95971,69.44979
3065.02717,69.44979
3067.09463,69.44979
3069.1621,69.44979
3071.22956,69.44979
3073.29702,69.44979
3075.36448,69.44979
3077.43195,69.44979
3079.49941,69.44979
3081.56687,69.44979
3083.63433,69.44979
3085.7018,69.44979
3087.76926,69.44979
3089.83672,69.44979
3091.90418,69.44979
3093.97165,69.44979
3096.03911,69.44979
3098.10657,69.44979
3100.17403,69.44979
3102.2415,69.44979
3104.30896,69.44979
3106.37642,69.44979
3108.44388,69.44979
3110.51135,69.44979
3112.57881,69.44979
3114.64627,69.44979
3116.71373,69.44979
3118.7812,69.44979
3120.84866,69.44979
3122.91612,69.44979
3124.98358,69.44979
3127.05105,69.44979
3129.11851,69.44979
3131.18597,69.44979
3133.25343,69.44979
3135.3209,69.44979
3137.38836,69.44979
3139.45582,69.44979
3141.52328,69.44979
3143.59075,69.44979
3145.65821,69.44979
3147.72567,69.44979
3149.79313,69.44979
3151.8606,69.44979
3153.92806,69.44979
3155.99552,69.44979
3158.06298,69.44979
3160.13044,69.44979
3162.19791,69.44979
3164.26537,69.44979
3166.33283,69.44979
3168.40029,69.44979
3170.46776,69.44979
3172.53522,69.44979
3174.60268,69.44979
3176.67014,69.44979
3178.73761,69.44979
3180.80507,69.44979
3182.87253,69.44979
3184.93999,69.44979
3187.00746,69.44979
3189.07492,69.44979
3191.14238,69.44979
3193.20984,69.44979
3195.27731,69.44979
3197.34477,69.44979
3199.41223,69.44979
3201.47969,69.44979
3203.54716,69.44979
3205.61462,69.44979
3207.68208,69.44979
3209.74954,69.44979
3211.81701,69.44979
3213.88447,69.44979
3215.95193,69.44979
3218.01939,69.44979
3220.08686,69.44979
3222.15432,69.44979
3224.22178,69.44979
3226.28924,69.44979
3228.35671,69.44979
3230.42417,69.44979
3232.49163,69.44979
3234.55909,69.44979
3236.62656,69.44979
3238.69402,69.44979
3240.76148,69.44979
3242.82894,69.44979
3244.89641,69.44979
3246.96387,69.44979
3249.03133,69.44979
3251.09879,69.44979
3253.16626,69.44979
3255.23372,69.44979
3257.30118,69.44979
3259.36864,69.44979
3261.43611,69.44979
3263.50357,69.44979
3265.57103,69.44979
3267.63849,69.44979
3269.70596,69.44979
3271.77342,69.44979
3273.84088,69.44979
3275.90834,69.44979
3277.97581,69.44979
3280.04327,69.44979
3282.11073,69.44979
3284.17819,69.44979
3286.24566,69.44979
3288.31312,69.44979
3290.38058,69.44979
3292.44804,69.44979
3294.51551,69.44979
3296.58297,69.44979
3298.65043,69.44979
3300.71789,69.44979
3302.78536,69.44979
3304.85282,69.44979
3306.92028,69.44979
3308.98774,69.44979
3311.05521,69.44979
3313.12267,69.44979
3315.19013,69.44979
3317.25759,69.44979
3319.32506,69.44979
3321.39252,69.44979
3323.45998,69.44979
3325.52744,69.44979
3327.59491,69.44979
3329.66237,69.44979
3331.72983,69.44979
3333.79729,69.44979
3335.86476,69.44979
3337.93222,69.44979
3339.99968,69.44979
3342.06714,69.44979
3344.13461,69.44979
3346.20207,69.44979
3348.26953,69.44979
3350.33699,69.44979
3352.40445,69.44979
3354.47192,69.44979
3356.53938,69.44979
3358.60684,69.44979
3360.6743,69.44979
3362.74177,69.44979
3364.80923,69.44979
3366.87669,69.44979
3368.94415,69.44979
3371.01162,69.44979
3373.07908,69.44979
3375.14654,69.44979
3377.214,69.44979
3379.28147,69.44979
3381.34893,69.44979
3383.41639,69.44979
3385.48385,69.44979
3387.55132,69.44979
3389.61878,69.44979
3391.68624,69.44979
3393.7537,69.44979
3395.82117,69.44979
3397.88863,69.44979
3399.95609,69.44979
3402.02355,69.44979
3404.09102,69.44979
3406.15848,69.44979
3408.22594,69.44979
3410.2934,69.44979
3412.36087,69.44979
3414.42833,69.44979
3416.49579,69.44979
3418.56325,69.44979
3420.63072,69.44979
3422.69818,69.44979
3424.76564,69.44979
3426.8331,69.44979
3428.90057,69.44979
3430.96803,69.44979
3433.03549,69.44979
3435.10295,69.44979
3437.17042,69.44979
3439.23788,69.44979
3441.30534,69.44979
3443.3728,69.44979
3445.44027,69.44979
3447.50773,69.44979
3449.57519,69.44979
3451.64265,69.44979
3453.71012,69.44979
3455.77758,69.44979
3457.84504,69.44979
3459.9125,69.44979
3461.97997,69.44979
3464.04743,69.44979
3466.11489,69.44979
3468.18235,69.44979
3470.24982,69.44979
3472.31728,69.44979
3474.38474,69.44979
3476.4522,69.44979
3478.51967,69.44979
3480.58713,69.44979
3482.65459,69.44979
3484.72205,69.44979
3486.78952,69.44979
3488.85698,69.44979
3490.92444,69.44979
3492.9919,69.44979
3495.05937,69.44979
3497.12683,69.44979
3499.19429,69.44979
3501.26175,69.44979
3503.32922,69.44979
3505.39668,69.44979
3507.46414,69.44979
3509.5316,69.44979
3511.59907,69.44979
3513.66653,69.44979
3515.73399,69.44979
3517.80145,69.44979
3519.86892,69.44979
3521.93638,70.15786
3524.00384,70.15786
3526.0713,70.15786
3528.13877,70.15786
3530.20623,70.15786
3532.27369,70.15786
3534.34115,70.15786
3536.40862,70.15786
3538.47608,70.15786
3540.54354,70.15786
3542.611,70.86594
3544.67846,71.57401
3546.74593,72.28208
3548.81339,72.28208
3550.88085,72.28208
3552.94831,72.28208
3555.01578,72.28208
3557.08324,72.28208
3559.1507,71.57401
3561.21816,70.86594
3563.28563,70.15786
3565.35309,69.44979
3567.42055,69.44979
3569.48801,69.44979
3571.55548,69.44979
3573.62294,69.44979
3575.6904,69.44979
3577.75786,69.44979
3579.82533,69.44979
3581.89279,69.44979
3583.96025,69.44979
3586.02771,69.44979
3588.09518,69.44979
3590.16264,69.44979
3592.2301,69.44979
3594.29756,69.44979
3596.36503,69.44979
3598.43249,69.44979
3600.49995,69.44979
3602.56741,69.44979
3604.63488,69.44979
3606.70234,69.44979
3608.7698,69.44979
3610.83726,69.44979
3612.90473,69.44979
3614.97219,69.44979
3617.03965,69.44979
3619.10711,69.44979
3621.17458,69.44979
3623.24204,69.44979
3625.3095,69.44979
3627.37696,69.44979
3629.44443,69.44979
3631.51189,69.44979
3633.57935,69.44979
3635.64681,69.44979
3637.71428,69.44979
3639.78174,69.44979
3641.8492,69.44979
3643.91666,69.44979
3645.98413,69.44979
3648.05159,69.44979
3650.11905,69.44979
3652.18651,69.44979
3654.25398,69.44979
3656.32144,69.44979
3658.3889,69.44979
3660.45636,69.44979
3662.52383,69.44979
3664.59129,69.44979
3666.65875,69.44979
3668.72621,70.15786
3670.79368,70.86594
3672.86114,71.57401
3674.9286,71.57401
3676.99606,71.57401
3679.06353,71.57401
3681.13099,71.57401
3683.19845,71.57401
3685.26591,71.57401
3687.33338,70.86594
3689.40084,70.15786
3691.4683,69.44979
3693.53576,69.44979
3695.60323,69.44979
3697.67069,69.44979
3699.73815,69.44979
3701.80561,69.44979
3703.87308,69.44979
3705.94054,69.44979
3708.008,69.44979
3710.07546,69.44979
3712.14293,69.44979
3714.21039,69.44979
3716.27785,69.44979
3718.34531,69.44979
3718.34531,69.44979
3722.48024,69.44979
3724.5477,69.44979
3726.61516,69.44979
3728.68263,69.44979
3730.75009,69.44979
3732.81755,69.44979
3734.88501,69.44979
3736.95248,69.44979
3739.01994,69.44979
3741.0874,69.44979
3743.15486,69.44979
3745.22232,69.44979
3747.28979,69.44979
3749.35725,69.44979
3751.42471,69.44979
3753.49217,69.44979
3755.55964,69.44979
3757.6271,69.44979
3759.69456,69.44979
3761.76202,69.44979
3763.82949,69.44979
3765.89695,69.44979
3767.96441,69.44979
3770.03187,69.44979
3772.09934,69.44979
3774.1668,69.44979
3776.23426,69.44979
3778.30172,69.44979
3780.36919,69.44979
3782.43665,69.44979
3784.50411,69.44979
3786.57157,69.44979
3788.63904,69.44979
3790.7065,69.44979
3792.77396,69.44979
3794.84142,69.44979
3796.90889,69.44979
3798.97635,69.44979
3801.04381,69.44979
3803.11127,69.44979
3805.17874,69.44979
3807.2462,69.44979
3809.31366,69.44979
3811.38112,69.44979
3813.44859,69.44979
3815.51605,69.44979
3817.58351,69.44979
3819.65097,69.44979
3821.71844,69.44979
3823.7859,69.44979
3825.85336,69.44979
3827.92082,69.44979
3829.98829,69.44979
3832.05575,69.44979
3834.12321,69.44979
3836.19067,69.44979
3838.25814,69.44979
3840.3256,69.44979
3842.39306,69.44979
3844.46052,69.44979
3846.52799,69.44979
3848.59545,69.44979
3850.66291,69.44979
3852.73037,69.44979
3854.79784,69.44979
3856.8653,69.44979
3858.93276,69.44979
3861.00022,69.44979
3863.06769,69.44979
3865.13515,69.44979
3867.20261,69.44979
3869.27007,69.44979
3871.33754,69.44979
3873.405,69.44979
3875.47246,69.44979
3877.53992,69.44979
3879.60739,69.44979
3881.67485,69.44979
3883.74231,69.44979
3885.80977,69.44979
3887.87724,69.44979
3889.9447,69.44979
3892.01216,69.44979
3894.07962,69.44979
3896.14709,69.44979
3898.21455,69.44979
3900.28201,69.44979
3902.34947,69.44979
3904.41694,69.44979
3906.4844,69.44979
3908.55186,69.44979
3910.61932,69.44979
3912.68679,69.44979
3914.75425,69.44979
3916.82171,69.44979
3918.88917,69.44979
3920.95664,69.44979
3923.0241,69.44979
3925.09156,69.44979
3927.15902,69.44979
3929.22649,69.44979
3931.29395,69.44979
3933.36141,69.44979
3935.42887,69.44979
3937.49633,69.44979
3939.5638,69.44979
3941.63126,69.44979
3943.69872,69.44979
3945.76618,69.44979
3947.83365,69.44979
3949.90111,69.44979
3951.96857,69.44979
3954.03603,69.44979
3956.1035,69.44979
3958.17096,69.44979
3960.23842,69.44979
3962.30588,69.44979
3964.37335,69.44979
3966.44081,69.44979
3968.50827,69.44979
3970.57573,69.44979
3972.6432,69.44979
3974.71066,69.44979
3976.77812,69.44979
3978.84558,69.44979
3980.91305,69.44979
3982.98051,69.44979
3985.04797,69.44979
3987.11543,70.15786
