Wavenumber (cm⁻¹),Intensity
200.0,22.96157998962872
201.00097751710655,20.756899183680982
202.0019550342131,19.375671050781204
203.00293255131965,18.69580136767843
204.0039100684262,18.120556954852745
205.00488758553274,18.612835347553855
206.0058651026393,19.747684270478445
207.00684261974584,21.489567102504257
208.0078201368524,24.10673042371574
209.00879765395894,27.181735748232395
210.00977517106548,33.10939166330576
211.01075268817203,41.480061102830646
212.01173020527858,50.907952782930884
213.01270772238513,60.16370572619411
214.01368523949168,66.3433885574
215.01466275659823,67.33243605627507
216.01564027370478,60.779016062086335
217.01661779081132,45.78628552141505
218.01759530791787,32.708047820678544
219.01857282502445,23.450947178915058
220.019550342131,17.880575208990113
221.02052785923755,15.142105760556344
222.0215053763441,12.800072851636989
223.02248289345064,11.584441149591326
224.0234604105572,10.553173708433453
225.02443792766374,9.52028558668423
226.0254154447703,9.133606092805934
227.02639296187684,8.877632053003692
228.02737047898339,8.545906066758471
229.02834799608993,8.113688892677906
230.02932551319648,7.721190753289768
231.03030303030303,7.68634683960325
232.03128054740958,7.788702279695607
233.03225806451613,7.635497002535947
234.03323558162268,7.335207191723499
235.03421309872923,7.343946137440405
236.03519061583577,7.357432462311454
237.03616813294232,7.524568077389069
238.03714565004887,7.56710633646946
239.03812316715542,7.352285723413147
240.03910068426197,7.424139674628301
241.04007820136852,7.426517756390409
242.04105571847506,7.35564419926446
243.0420332355816,7.389891615735428
244.0430107526882,7.685596863181468
245.04398826979474,7.742888675793404
246.0449657869013,7.795459172187754
247.04594330400784,7.988226281628542
248.04692082111438,8.341703760656733
249.04789833822093,8.702313348681633
250.04887585532748,8.649358242001279
251.04985337243403,8.753327417646164
252.05083088954058,9.13804758247428
253.05180840664713,9.46127967115907
254.05278592375367,9.43891172123548
255.05376344086022,9.941232584882899
256.05474095796677,10.609188388988558
257.0557184750733,11.296856904525129
258.05669599217987,12.667262416630706
259.0576735092864,13.93359091792321
260.05865102639297,16.000674643423242
261.0596285434995,18.921804551598214
262.06060606060606,22.38519263267391
263.0615835777126,26.428293261566253
264.06256109481916,29.705575244027475
265.0635386119257,31.204327646225583
266.06451612903226,29.689703912578114
267.0654936461388,24.437315254944192
268.06647116324535,20.13341634695309
269.0674486803519,17.707621030698725
270.06842619745845,16.39019893295927
271.069403714565,15.537339333376318
272.07038123167155,15.613253848307663
273.0713587487781,15.958050927511872
274.07233626588464,16.490631097761245
275.0733137829912,17.041231360938603
276.07429130009774,17.409488617901093
277.0752688172043,18.07114196882814
278.07624633431084,18.154248382333897
279.0772238514174,17.884301450845452
280.07820136852393,17.616533207407812
281.0791788856305,17.23959151189719
282.08015640273703,16.57946703980611
283.0811339198436,16.102531409277155
284.08211143695013,16.10266488881427
285.0830889540567,16.61086331168642
286.0840664711632,17.39613228875229
287.0850439882698,18.185103746767712
288.0860215053764,19.844547741534132
289.0869990224829,22.333477090812295
290.0879765395895,24.81729872028611
291.088954056696,28.14567377669562
292.0899315738026,32.07731972304775
293.0909090909091,36.27812638079617
294.09188660801567,39.51684248063678
295.0928641251222,40.01273332826329
296.09384164222877,38.674223447417525
297.0948191593353,35.47899116415168
298.09579667644186,31.577924659083216
299.0967741935484,28.237864213019595
300.09775171065496,25.48695904987606
301.0987292277615,24.123895102112098
302.09970674486806,24.15696026183105
303.1006842619746,25.1831336408954
304.10166177908116,26.731234113704712
305.1026392961877,28.78149574245382
306.10361681329425,31.62714599623519
307.1045943304008,35.72751262192575
308.10557184750735,40.60676237458205
309.1065493646139,45.099627505370805
310.10752688172045,50.75628033495924
311.108504398827,53.978439407011564
312.10948191593354,54.253659010676415
313.1104594330401,51.92243305624039
314.11143695014664,45.94167080775644
315.1124144672532,39.84610097757797
316.11339198435974,33.65809364655444
317.1143695014663,28.2161922751878
318.11534701857283,24.59964620533413
319.1163245356794,22.334348502365103
320.11730205278593,20.775240881888312
321.1182795698925,19.99995464042493
322.119257086999,19.691737263491444
323.1202346041056,19.369170418020865
324.1212121212121,20.46999598519416
325.1221896383187,21.325652503163614
326.1231671554252,22.1412892374211
327.12414467253177,23.54240942437599
328.1251221896383,26.024314747793046
329.12609970674487,28.350127116136022
330.1270772238514,30.914419594177268
331.12805474095796,34.32937207432121
332.1290322580645,38.69508945219491
333.13000977517106,43.17861951743375
334.1309872922776,49.18768935174647
335.13196480938416,57.44891932092042
336.1329423264907,67.33199936904013
337.13391984359725,78.1673288707091
338.1348973607038,91.05704310605918
339.13587487781035,103.7017943934396
340.1368523949169,116.30966744602411
341.13782991202345,128.14330273388495
342.13880742913,136.97100305844648
343.13978494623655,140.4893430830172
344.1407624633431,142.20793335827304
345.14173998044964,143.4635092732735
346.1427174975562,143.4716990697265
347.14369501466274,139.93689410430073
348.1446725317693,127.90995253863538
349.14565004887584,109.91958896379013
350.1466275659824,89.56173216608596
351.14760508308893,70.89671769713162
352.1485826001955,58.586766724495014
353.14956011730203,49.05145872155741
354.1505376344086,41.9597228607371
355.1515151515151,37.51283162336771
356.1524926686217,35.13393783296565
357.1534701857282,33.526878515933994
358.1544477028348,33.14594453369271
359.1554252199413,33.64669877425315
360.15640273704787,35.13387208574897
361.1573802541544,37.867583652258794
362.15835777126097,41.85913907417487
363.1593352883675,46.452256008516386
364.16031280547406,52.41797509801698
365.1612903225806,59.56915404734623
366.16226783968716,67.18752000006643
367.1632453567937,75.00996360845723
368.16422287390026,80.43550462116181
369.1652003910068,80.14634195038508
370.16617790811335,74.86564720636744
371.1671554252199,67.14341312958189
372.16813294232645,57.40593019135735
373.169110459433,50.176550160364876
374.17008797653955,45.02031130392403
375.1710654936461,41.43866845516217
376.1720430107527,39.66685529783447
377.17302052785925,39.696746485044365
378.1739980449658,40.013040046933824
379.17497556207235,42.05287281855832
380.1759530791789,45.91094335378409
381.17693059628544,50.31640232103358
382.177908113392,55.18522143402829
383.17888563049854,61.127133273045914
384.1798631476051,67.09373469888536
385.18084066471164,71.95394817351506
386.1818181818182,74.86912381361844
387.18279569892474,73.82426530342559
388.1837732160313,69.13693480842913
389.18475073313783,61.587911247164655
390.1857282502444,52.62069891861904
391.18670576735093,44.27377064797759
392.1876832844575,37.449632645117475
393.188660801564,32.1071204672839
394.1896383186706,27.542137771123056
395.1906158357771,23.654390421433327
396.1915933528837,20.830889372815687
397.1925708699902,18.698971556492683
398.19354838709677,17.09180550795911
399.1945259042033,15.62773253380102
400.19550342130987,14.150316727769134
401.1964809384164,12.808999936817225
402.19745845552296,12.056992178705388
403.1984359726295,11.18858154731167
404.19941348973606,10.519259416761653
405.2003910068426,10.067553143134587
406.20136852394916,9.438238248633445
407.2023460410557,8.836062115987216
408.20332355816225,8.619476279689929
409.20430107526886,8.475357627220058
410.2052785923754,8.164929673697392
411.20625610948196,7.78673177866748
412.2072336265885,7.529364314357608
413.20821114369505,7.269264530670759
414.2091886608016,6.922342211144076
415.21016617790815,6.598750060391524
416.2111436950147,6.469509298190963
417.21212121212125,6.547790640116158
418.2130987292278,6.542152176490803
419.21407624633434,6.312813319531294
420.2150537634409,6.0416485536798
421.21603128054744,5.956311213231333
422.217008797654,5.730242559884931
423.21798631476054,5.676207837603002
424.2189638318671,5.766773283580534
425.21994134897363,5.8009259585799136
426.2209188660802,5.683502842142847
427.22189638318673,5.76195568069417
428.2228739002933,5.5692941282366055
429.2238514173998,5.451898238272277
430.2248289345064,5.512455177396451
431.2258064516129,5.609324533158024
432.2267839687195,5.578441061090054
433.227761485826,5.592739243713543
434.22873900293257,5.466156488865612
435.2297165200391,5.444882758464868
436.23069403714567,5.684330209462132
437.2316715542522,5.643821412498836
438.23264907135876,5.667477701175393
439.2336265884653,5.677609879520104
440.23460410557186,5.705359658699933
441.2355816226784,5.750001565745781
442.23655913978496,5.646269246413167
443.2375366568915,5.824210699275106
444.23851417399806,5.711657105230596
445.2394916911046,5.526170516640601
446.24046920821115,5.499687401226669
447.2414467253177,5.482481237501986
448.24242424242425,5.716038151703721
449.2434017595308,5.83953178351068
450.24437927663735,5.9606436730396934
451.2453567937439,6.101345367163211
452.24633431085044,6.083624453903711
453.247311827957,6.217883472850638
454.24828934506354,6.358070692035678
455.2492668621701,6.46885206685195
456.25024437927664,6.705251208105091
457.2512218963832,7.1678037570130915
458.25219941348973,7.313881509184824
459.2531769305963,7.885653356931586
460.25415444770283,8.30993713616422
461.2551319648094,8.740357626590894
462.2561094819159,9.545198682316672
463.2570869990225,9.90667432957108
464.258064516129,10.268213565851015
465.2590420332356,10.356474351662081
466.2600195503421,10.195216488556193
467.26099706744867,9.896799758893303
468.2619745845552,9.236266613357742
469.26295210166177,8.992515529964523
470.2639296187683,8.686105210690515
471.26490713587486,8.178741771931143
472.2658846529814,7.703024921654266
473.26686217008796,7.723490707936502
474.2678396871945,7.658592963146938
475.26881720430106,7.543751100929405
476.2697947214076,7.487867543501336
477.27077223851416,7.541813299228508
478.2717497556207,7.610453820680053
479.27272727272725,7.405235307574819
480.2737047898338,7.653831808248692
481.27468230694035,8.137045776908732
482.2756598240469,8.440838798626606
483.27663734115345,8.548508155411431
484.27761485826,9.198364610502109
485.27859237536654,9.95622419818499
486.2795698924731,10.478784137476477
487.28054740957964,10.986038185745688
488.2815249266862,11.857556187488647
489.2825024437928,13.281292963413788
490.28347996089934,14.99868782516131
491.2844574780059,16.706675401501695
492.28543499511244,19.135212369752132
493.286412512219,22.430248642747646
494.28739002932554,26.150675616279845
495.2883675464321,31.468372526055596
496.28934506353863,36.295636788026066
497.2903225806452,41.05202292892
498.29130009775173,44.48994119630984
499.2922776148583,44.58439570734541
500.2932551319648,41.687220720016896
501.2942326490714,35.66479353770332
502.2952101661779,29.19174339269385
503.2961876832845,23.808810059235025
504.297165200391,19.833167185502905
505.29814271749757,17.13004838544824
506.2991202346041,15.724778122863016
507.30009775171067,14.510074533325316
508.3010752688172,13.435235565525394
509.30205278592376,12.651091874855911
510.3030303030303,12.099786609341708
511.30400782013686,11.798375815257783
512.3049853372434,11.604600120678054
513.3059628543499,11.545239114701221
514.3069403714564,11.392421055394152
515.307917888563,11.230960481234021
516.3088954056695,11.728955160643473
517.3098729227761,11.840484009326344
518.3108504398826,12.206232955106556
519.3118279569892,12.625974709860289
520.3128054740957,12.983125576412734
521.3137829912023,13.62964702938202
522.3147605083088,14.714739662473647
523.3157380254154,15.724475749657799
524.3167155425219,17.435300089716076
525.3176930596285,19.4135804968142
526.318670576735,21.098760515429788
527.3196480938416,23.787948984622975
528.3206256109481,26.360668048893153
529.3216031280547,29.262539639113204
530.3225806451612,32.44739443623652
531.3235581622678,35.17460959373522
532.3245356793743,36.93031342033441
533.3255131964809,38.98493538318098
534.3264907135874,41.565623224855166
535.327468230694,45.7347545276352
536.3284457478005,51.816262896369636
537.3294232649071,59.72482216197005
538.3304007820136,69.95370505032966
539.3313782991202,82.39081266418607
540.3323558162267,96.94091555533468
541.3333333333333,112.776057242618
542.3343108504398,127.80863047699934
543.3352883675464,138.4695228899554
544.3362658846529,137.56163901144882
545.3372434017595,128.29902791720787
546.338220918866,113.38421974169198
547.3391984359725,95.6003194244719
548.3401759530791,78.592017511748
549.3411534701856,65.86609195851284
550.3421309872922,56.66278259969156
551.3431085043987,49.91702247381241
552.3440860215054,45.510511159911914
553.345063538612,43.089471444537494
554.3460410557185,42.008376999533446
555.347018572825,42.904996846393196
556.3479960899316,44.59356400934496
557.3489736070381,47.57290794385642
558.3499511241447,52.2917084607322
559.3509286412512,57.97779458116732
560.3519061583578,62.75581503403688
561.3528836754643,64.98679234641628
562.3538611925709,65.11263833877436
563.3548387096774,61.94483699997297
564.355816226784,56.127105793435916
565.3567937438905,49.503274516895125
566.3577712609971,42.30785136418946
567.3587487781036,35.8518793782355
568.3597262952102,30.611126492130946
569.3607038123167,26.477266450773467
570.3616813294233,23.170950091038222
571.3626588465298,20.493398691357825
572.3636363636364,18.263717370762738
573.3646138807429,16.955719481208263
574.3655913978495,15.77650804152082
575.366568914956,14.611319357880104
576.3675464320626,13.67513271006426
577.3685239491691,12.735137492864267
578.3695014662757,11.756161356875232
579.3704789833822,11.537071635503114
580.3714565004888,11.045397279355557
581.3724340175953,10.272165150450657
582.3734115347019,10.036124034436536
583.3743890518084,9.51665010220445
584.375366568915,9.24228106698091
585.3763440860215,8.952334297397366
586.377321603128,8.468817582508956
587.3782991202346,8.048505223928666
588.3792766373411,8.06013437897229
589.3802541544477,7.703160373448231
590.3812316715542,7.693819709117795
591.3822091886608,7.5324098133136985
592.3831867057673,7.076951034316095
593.3841642228739,6.627009132126005
594.3851417399804,6.449557826251963
595.386119257087,6.152573476240209
596.3870967741935,6.007184719332758
597.3880742913001,6.0397597832095755
598.3890518084066,5.84877266079529
599.3900293255132,5.441957574314722
600.3910068426197,5.706431263388846
601.3919843597263,5.604335123403376
602.3929618768328,5.293792351327076
603.3939393939394,5.042568021027365
604.3949169110459,4.984046648886844
605.3958944281525,5.0230798411823665
606.396871945259,4.890972957981565
607.3978494623656,4.918453432531955
608.3988269794721,4.864924374404872
609.3998044965787,4.757963861929665
610.4007820136852,4.669086903162953
611.4017595307918,4.613780999540134
612.4027370478983,4.819584581505906
613.4037145650049,4.771977987954099
614.4046920821114,4.593198283253077
615.405669599218,4.495078627946161
616.4066471163245,4.540072388040834
617.4076246334312,4.570634049404444
618.4086021505377,4.3872680449534105
619.4095796676443,4.3692811030513115
620.4105571847508,4.30802774510647
621.4115347018574,4.262682373109422
622.4125122189639,4.328360634120278
623.4134897360705,4.355479299379364
624.414467253177,4.161490468693592
625.4154447702836,4.382103586275685
626.4164222873901,4.1789226180371495
627.4173998044967,3.833922150955931
628.4183773216032,3.9064521696064345
629.4193548387098,4.230032229525973
630.4203323558163,4.313435331756851
631.4213098729228,4.160499093648802
632.4222873900294,4.08152226134737
633.423264907136,4.0993239972282405
634.4242424242425,4.09252045328204
635.425219941349,4.064547471839722
636.4261974584556,4.076925345566187
637.4271749755621,4.146134494035655
638.4281524926687,4.229000774020833
639.4291300097752,4.189260928699644
640.4301075268818,4.042090521977102
641.4310850439883,4.093171131288403
642.4320625610949,4.318103713853516
643.4330400782014,4.327726530372879
644.434017595308,4.225841428437167
645.4349951124145,4.2769855821498775
646.4359726295211,4.46767138572529
647.4369501466276,4.456433806306846
648.4379276637342,4.649407147059056
649.4389051808407,4.551234932002021
650.4398826979473,4.717756847580972
651.4408602150538,4.825145563518016
652.4418377321604,4.673728794553927
653.4428152492669,4.920562966022916
654.4437927663735,4.752429252727197
655.44477028348,4.7712595129463375
656.4457478005866,4.969334481149497
657.4467253176931,5.177840539988076
658.4477028347997,5.309806674817038
659.4486803519062,5.426210020484068
660.4496578690128,5.610561535693373
661.4506353861193,5.858620582702784
662.4516129032259,5.822261304574734
663.4525904203324,6.004213908855735
664.453567937439,6.510447013388891
665.4545454545455,6.746339177952537
666.455522971652,7.1212254571775455
667.4565004887586,7.583361579897825
668.4574780058651,8.099963326061307
669.4584555229717,8.689863061597611
670.4594330400782,9.47304326259362
671.4604105571848,10.496348378957896
672.4613880742913,11.433686131370175
673.4623655913979,12.813545471782312
674.4633431085044,14.34478230736012
675.464320625611,15.560426714106981
676.4652981427175,16.824946296574826
677.4662756598241,18.350922453349
678.4672531769306,18.650550616204807
679.4682306940372,18.40410475875642
680.4692082111437,17.452090691330195
681.4701857282503,15.670475299196765
682.4711632453568,13.676470397176814
683.4721407624634,12.226939531825824
684.4731182795699,10.952141901588977
685.4740957966765,9.165220298149128
686.475073313783,8.060442910898102
687.4760508308896,7.251286886823674
688.4770283479961,6.691467555427815
689.4780058651027,6.3461968963588395
690.4789833822092,5.673638072073518
691.4799608993158,5.4314955215188565
692.4809384164223,5.196382843156858
693.4819159335289,4.825038520186495
694.4828934506354,4.590036196793598
695.483870967742,4.555302562271245
696.4848484848485,4.45359483923868
697.485826001955,4.2864492529810585
698.4868035190616,4.056793269422449
699.4877810361681,4.041902439641008
700.4887585532747,4.437108466546152
701.4897360703812,4.548462006264138
702.4907135874878,3.9145768978590856
703.4916911045943,3.7182800830964555
704.4926686217009,3.651300316610917
705.4936461388074,4.633100439641622
706.494623655914,4.503924224668951
707.4956011730205,3.74477334069289
708.4965786901271,3.716187261378869
709.4975562072336,3.652333133186655
710.4985337243402,3.654283470181269
711.4995112414467,3.55482597636562
712.5004887585533,3.5898614451466084
713.5014662756598,3.648584583313771
714.5024437927664,3.593046721150117
715.5034213098729,3.5006686823929143
716.5043988269795,3.322570142785816
717.505376344086,3.43767141683896
718.5063538611926,3.5369728451779965
719.5073313782991,3.599393967307618
720.5083088954057,3.573880255754853
721.5092864125122,3.478927932854041
722.5102639296188,3.6364632103474483
723.5112414467253,3.478821728146429
724.5122189638319,3.3518412792063392
725.5131964809384,3.33255164875809
726.514173998045,3.3346730393669124
727.5151515151515,3.385142439912508
728.516129032258,3.525200030351084
729.5171065493646,3.377128722477
730.5180840664711,3.509431877692546
731.5190615835777,3.397214116196199
732.5200391006842,3.3430589236247026
733.5210166177908,3.45874467078006
734.5219941348973,3.5374262770491485
735.5229716520039,3.6060254658780444
736.5239491691104,3.515191218829227
737.524926686217,3.5614416132827955
738.5259042033235,3.533618664806324
739.5268817204301,3.516110611910903
740.5278592375366,3.609364482157424
741.5288367546432,3.658327910687663
742.5298142717497,3.750433606660245
743.5307917888563,3.93805116039126
744.5317693059628,3.9935138914368005
745.5327468230694,4.0075334335117
746.5337243401759,4.070818161835949
747.5347018572825,4.22706338409181
