Wavenumber (cm⁻¹),Intensity
200.0,3882.535598838415
201.00097751710655,3897.0336686715705
202.0019550342131,3905.1318551581617
203.00293255131965,3910.207974331508
204.0039100684262,3918.274696942735
205.00488758553274,3930.9620713086665
206.0058651026393,3939.207898526182
207.00684261974584,3948.9550031760687
208.0078201368524,3961.588053749045
209.00879765395894,3971.3009659334984
210.00977517106548,3965.10114909052
211.01075268817203,3954.741266330325
212.01173020527858,3938.417194524688
213.01270772238513,3915.993875867899
214.01368523949168,3901.067477132771
215.01466275659823,3892.743461021277
216.01564027370478,3886.8008726376925
217.01661779081132,3884.9992369381025
218.01759530791787,3892.8021801867562
219.01857282502445,3902.73355611153
220.019550342131,3919.7028758247106
221.02052785923755,3944.5962107258883
222.0215053763441,3975.325193961009
223.02248289345064,4005.193887861087
224.0234604105572,4035.278711574881
225.02443792766374,4071.2184681670265
226.0254154447703,4115.664194210407
227.02639296187684,4167.076484172008
228.02737047898339,4218.483564729131
229.02834799608993,4283.673838196892
230.02932551319648,4355.754994278424
231.03030303030303,4431.920805623127
232.03128054740958,4531.933399631541
233.03225806451613,4649.318267860368
234.03323558162268,4786.788151401805
235.03421309872923,4947.55924602368
236.03519061583577,5126.932025204977
237.03616813294232,5296.037407022226
238.03714565004887,5439.20143673177
239.03812316715542,5523.132903820711
240.03910068426197,5520.742685723891
241.04007820136852,5429.525958419128
242.04105571847506,5253.578374713272
243.0420332355816,5039.384321057297
244.0430107526882,4833.286653286579
245.04398826979474,4666.737715816249
246.0449657869013,4529.167271082666
247.04594330400784,4417.243894181644
248.04692082111438,4319.156269278284
249.04789833822093,4229.598347474178
250.04887585532748,4152.596154232819
251.04985337243403,4084.653257807211
252.05083088954058,4027.015732860248
253.05180840664713,3982.503655294465
254.05278592375367,3950.315067367778
255.05376344086022,3920.4242224497216
256.05474095796677,3898.0400359641962
257.0557184750733,3882.1577602868924
258.05669599217987,3873.339728887324
259.0576735092864,3874.855172132835
260.05865102639297,3883.7119397887177
261.0596285434995,3869.9760527500343
262.06060606060606,3851.2926061046055
263.0615835777126,3848.073231254269
264.06256109481916,3847.172364072708
265.0635386119257,3851.1687666173343
266.06451612903226,3852.4310361991556
267.0654936461388,3852.1797765433607
268.06647116324535,3856.1003326875352
269.0674486803519,3857.607148857546
270.06842619745845,3863.0097410784074
271.069403714565,3872.989983442024
272.07038123167155,3885.28147835563
273.0713587487781,3895.937549700724
274.07233626588464,3901.256555196058
275.0733137829912,3907.4167964769235
276.07429130009774,3917.6639382327576
277.0752688172043,3929.8400478975273
278.07624633431084,3936.402744026774
279.0772238514174,3944.2945164241924
280.07820136852393,3953.736452212066
281.0791788856305,3961.5643439826126
282.08015640273703,3965.7206518214616
283.0811339198436,3972.8516103843094
284.08211143695013,3982.324604843424
285.0830889540567,3991.6845772971496
286.0840664711632,4002.519977641197
287.0850439882698,4020.358191699803
288.0860215053764,4030.7096622951112
289.0869990224829,4036.953756466851
290.0879765395895,4045.6468270171786
291.088954056696,4058.046901577552
292.0899315738026,4066.7143516551387
293.0909090909091,4083.185867538932
294.09188660801567,4095.3780626805224
295.0928641251222,4103.695630413779
296.09384164222877,4118.631130649966
297.0948191593353,4140.715802177993
298.09579667644186,4167.57800546181
299.0967741935484,4185.392222976093
300.09775171065496,4193.446642510376
301.0987292277615,4204.768324095685
302.09970674486806,4213.065686378813
303.1006842619746,4209.529411347552
304.10166177908116,4204.853215506734
305.1026392961877,4206.573648393119
306.10361681329425,4206.168201689091
307.1045943304008,4210.509562743074
308.10557184750735,4216.5435469436325
309.1065493646139,4229.497670717453
310.10752688172045,4252.183433232297
311.108504398827,4268.876437534711
312.10948191593354,4290.925654659083
313.1104594330401,4309.740701754706
314.11143695014664,4324.577558057644
315.1124144672532,4340.051708297825
316.11339198435974,4345.501076700631
317.1143695014663,4354.198237390668
318.11534701857283,4364.366247858069
319.1163245356794,4375.454387338416
320.11730205278593,4393.528608310659
321.1182795698925,4417.155888590017
322.119257086999,4445.07878149087
323.1202346041056,4478.9360805809865
324.1212121212121,4517.282448944957
325.1221896383187,4552.059781000888
326.1231671554252,4588.667461598541
327.12414467253177,4620.448745962546
328.1251221896383,4654.66242937069
329.12609970674487,4699.256244614684
330.1270772238514,4744.529224439023
331.12805474095796,4800.121440726797
332.1290322580645,4863.05794866545
333.13000977517106,4936.289795011562
334.1309872922776,5024.139286185619
335.13196480938416,5113.723360455629
336.1329423264907,5215.284478734798
337.13391984359725,5321.145910015097
338.1348973607038,5434.012876478818
339.13587487781035,5564.451303107333
340.1368523949169,5691.966679141007
341.13782991202345,5830.438252204885
342.13880742913,5980.4816939414595
343.13978494623655,6131.538198397244
344.1407624633431,6271.530559237717
345.14173998044964,6413.931680245071
346.1427174975562,6560.060024724227
347.14369501466274,6681.115730323893
348.1446725317693,6768.14103912866
349.14565004887584,6843.771456924263
350.1466275659824,6876.667193755813
351.14760508308893,6868.362526949648
352.1485826001955,6821.397533816803
353.14956011730203,6741.114346599463
354.1505376344086,6638.071724516178
355.1515151515151,6509.352419471636
356.1524926686217,6365.302768139276
357.1534701857282,6223.031618073668
358.1544477028348,6092.034987612444
359.1554252199413,5968.956864420755
360.15640273704787,5860.781779560263
361.1573802541544,5765.647869144708
362.15835777126097,5682.620174929335
363.1593352883675,5608.187640162592
364.16031280547406,5528.069818906087
365.1612903225806,5452.147684095746
366.16226783968716,5381.777368897033
367.1632453567937,5312.995108379093
368.16422287390026,5243.100030211606
369.1652003910068,5179.135685127976
370.16617790811335,5120.532491602498
371.1671554252199,5077.070701978105
372.16813294232645,5047.63610849852
373.169110459433,5023.287842228011
374.17008797653955,5003.697530124029
375.1710654936461,4999.495439746847
376.1720430107527,5003.39431288962
377.17302052785925,5007.323706048988
378.1739980449658,5007.273642080723
379.17497556207235,5005.831653148909
380.1759530791789,4998.438293963786
381.17693059628544,4985.796041057949
382.177908113392,4972.951050569326
383.17888563049854,4965.550375570953
384.1798631476051,4963.582561632545
385.18084066471164,4960.426488480363
386.1818181818182,4962.257808923083
387.18279569892474,4964.447868851106
388.1837732160313,4957.737528439746
389.18475073313783,4960.155894603339
390.1857282502444,4948.149438630641
391.18670576735093,4935.9517545349545
392.1876832844575,4927.252446003281
393.188660801564,4915.278141399137
394.1896383186706,4920.237980947539
395.1906158357771,4930.561172731592
396.1915933528837,4952.104217846003
397.1925708699902,4983.43537054203
398.19354838709677,5015.742898796261
399.1945259042033,5055.8006518692755
400.19550342130987,5102.0249096950165
401.1964809384164,5144.485936878065
402.19745845552296,5179.71536873908
403.1984359726295,5210.3020035530035
404.19941348973606,5227.70844111752
405.2003910068426,5236.8100345652965
406.20136852394916,5226.663113860163
407.2023460410557,5202.009871343056
408.20332355816225,5182.353844370599
409.20430107526886,5163.683990779587
410.2052785923754,5154.207900875385
411.20625610948196,5154.449458512094
412.2072336265885,5164.674642363171
413.20821114369505,5185.512073659899
414.2091886608016,5213.6167688136575
415.21016617790815,5257.765310110157
416.2111436950147,5306.666672992853
417.21212121212125,5355.476606098315
418.2130987292278,5403.258354296931
419.21407624633434,5439.5192109867585
420.2150537634409,5462.5816809493235
421.21603128054744,5465.272781008187
422.217008797654,5442.127019715795
423.21798631476054,5391.245298803178
424.2189638318671,5313.449925467209
425.21994134897363,5218.265647855393
426.2209188660802,5119.9185070935855
427.22189638318673,5018.940199922421
428.2228739002933,4916.407719186768
429.2238514173998,4829.25583524832
430.2248289345064,4746.847249381219
431.2258064516129,4672.299878756247
432.2267839687195,4618.391936514713
433.227761485826,4587.781371495025
434.22873900293257,4560.272114720482
435.2297165200391,4540.214816234894
436.23069403714567,4533.7933327274795
437.2316715542522,4538.903034743525
438.23264907135876,4552.873744759152
439.2336265884653,4576.548167435238
440.23460410557186,4604.502134036636
441.2355816226784,4643.909892234872
442.23655913978496,4682.062962484916
443.2375366568915,4719.480608017872
444.23851417399806,4773.149026965562
445.2394916911046,4818.779742247535
446.24046920821115,4855.712089944548
447.2414467253177,4875.538859131289
448.24242424242425,4874.056182654171
449.2434017595308,4852.826175439183
450.24437927663735,4809.60714816714
451.2453567937439,4767.219427699724
452.24633431085044,4724.643185858801
453.247311827957,4679.852915301112
454.24828934506354,4636.37627392357
455.2492668621701,4607.717660311893
456.25024437927664,4585.472661896278
457.2512218963832,4569.702751273702
458.25219941348973,4558.344939325203
459.2531769305963,4548.822882484033
460.25415444770283,4542.179487757516
461.2551319648094,4529.988322838559
462.2561094819159,4531.596649413215
463.2570869990225,4537.048248579904
464.258064516129,4535.6657582619055
465.2590420332356,4536.251786992717
466.2600195503421,4537.647270856385
467.26099706744867,4537.348600236866
468.2619745845552,4537.327071688238
469.26295210166177,4536.888225416013
470.2639296187683,4532.914681620792
471.26490713587486,4532.652985262424
472.2658846529814,4526.592573704223
473.26686217008796,4518.25926507989
474.2678396871945,4510.950968516893
475.26881720430106,4507.4886945184035
476.2697947214076,4514.88416951497
477.27077223851416,4521.898090523235
478.2717497556207,4526.710673057423
479.27272727272725,4535.393355490184
480.2737047898338,4548.173406071271
481.27468230694035,4553.314801913995
482.2756598240469,4556.053110949712
483.27663734115345,4556.909645641634
484.27761485826,4565.35595748865
485.27859237536654,4579.455558325289
486.2795698924731,4580.993346577362
487.28054740957964,4566.710508728411
488.2815249266862,4568.2679216842735
489.2825024437928,4567.903050873672
490.28347996089934,4561.895763344751
491.2844574780059,4561.717552990612
492.28543499511244,4552.088889085162
493.286412512219,4553.724605935908
494.28739002932554,4551.043403847171
495.2883675464321,4544.716228702716
496.28934506353863,4542.7823945393675
497.2903225806452,4541.509804424192
498.29130009775173,4540.473268543938
499.2922776148583,4541.266643042221
500.2932551319648,4545.052264738641
501.2942326490714,4552.316301666807
502.2952101661779,4562.422653550987
503.2961876832845,4571.455984800735
504.297165200391,4584.253281705348
505.29814271749757,4600.64565335228
506.2991202346041,4616.146874233027
507.30009775171067,4629.139979241601
508.3010752688172,4656.023630387218
509.30205278592376,4684.186542694749
510.3030303030303,4708.441182075892
511.30400782013686,4730.039003366057
512.3049853372434,4752.145783186462
513.3059628543499,4777.4379322636
514.3069403714564,4812.445981973618
515.307917888563,4841.444843548598
516.3088954056695,4876.227744997801
517.3098729227761,4911.398863806581
518.3108504398826,4932.202447333603
519.3118279569892,4961.718567345371
520.3128054740957,4984.201150177527
521.3137829912023,5005.972496317585
522.3147605083088,5019.217530137069
523.3157380254154,5018.097993625559
524.3167155425219,5015.205036613105
525.3176930596285,4998.784699662178
526.318670576735,4984.052401556769
527.3196480938416,4967.802909146862
528.3206256109481,4948.90814361168
529.3216031280547,4934.871462142959
530.3225806451612,4927.124024738765
531.3235581622678,4921.022687032114
532.3245356793743,4913.334230577247
533.3255131964809,4911.190860090178
534.3264907135874,4916.85158029641
535.327468230694,4917.094836499365
536.3284457478005,4922.032644935615
537.3294232649071,4930.381880557183
538.3304007820136,4939.046031478199
539.3313782991202,4944.163884135937
540.3323558162267,4944.768393954196
541.3333333333333,4947.55474118623
542.3343108504398,4947.315018192037
543.3352883675464,4943.0413907485245
544.3362658846529,4934.212618195443
545.3372434017595,4932.45672121723
546.338220918866,4957.231144939364
547.3391984359725,4967.645552275469
548.3401759530791,4976.654213614555
549.3411534701856,4984.481253860644
550.3421309872922,4986.512168406469
551.3431085043987,4979.821597225847
552.3440860215054,4967.162721980225
553.345063538612,4943.945627673446
554.3460410557185,4921.497449538035
555.347018572825,4901.133133858202
556.3479960899316,4880.378733792955
557.3489736070381,4861.87346966686
558.3499511241447,4851.300196872066
559.3509286412512,4833.52144221345
560.3519061583578,4825.585756893868
561.3528836754643,4822.132640213497
562.3538611925709,4814.684022038236
563.3548387096774,4821.3667379007165
564.355816226784,4816.4280861180005
565.3567937438905,4808.001504558807
566.3577712609971,4804.515508677518
567.3587487781036,4805.729297334878
568.3597262952102,4806.694141504777
569.3607038123167,4810.091966168905
570.3616813294233,4817.801759288338
571.3626588465298,4822.678581459658
572.3636363636364,4831.7181799702075
573.3646138807429,4847.344303118707
574.3655913978495,4860.3317286981455
575.366568914956,4878.575480991945
576.3675464320626,4896.782745588653
577.3685239491691,4902.791023017578
578.3695014662757,4910.723219101913
579.3704789833822,4929.030145203364
580.3714565004888,4927.0786909178505
581.3724340175953,4918.482784465082
582.3734115347019,4908.971574175016
583.3743890518084,4894.5044496895
584.375366568915,4880.704196219375
585.3763440860215,4877.215759669279
586.377321603128,4882.48478290077
587.3782991202346,4866.5586470551025
588.3792766373411,4861.885549513847
589.3802541544477,4862.897190073041
590.3812316715542,4860.574687808566
591.3822091886608,4860.644637499916
592.3831867057673,4865.666828653478
593.3841642228739,4869.258746438307
594.3851417399804,4865.997095630209
595.386119257087,4862.172433196611
596.3870967741935,4863.586124536733
597.3880742913001,4867.472123502322
598.3890518084066,4874.699979564397
599.3900293255132,4868.06709164451
600.3910068426197,4866.558351358497
601.3919843597263,4866.676853144327
602.3929618768328,4862.056354255971
603.3939393939394,4870.615616859322
604.3949169110459,4871.895344204232
605.3958944281525,4870.162237675954
606.396871945259,4877.894312389812
607.3978494623656,4889.590973362507
608.3988269794721,4893.249023221354
609.3998044965787,4893.714246353777
610.4007820136852,4896.127655486758
611.4017595307918,4906.961277169592
612.4027370478983,4917.344329563982
613.4037145650049,4923.839231780009
614.4046920821114,4929.303020970084
615.405669599218,4932.207126892912
616.4066471163245,4944.53011631967
617.4076246334312,4942.983007381561
618.4086021505377,4945.834799593179
619.4095796676443,4955.950439229939
620.4105571847508,4955.556440546948
621.4115347018574,4964.206378304392
622.4125122189639,4974.17192258843
623.4134897360705,4979.27496277284
624.414467253177,4987.683603753983
625.4154447702836,5000.203230698904
626.4164222873901,5008.959794794403
627.4173998044967,5021.560777326227
628.4183773216032,5038.190835176545
629.4193548387098,5055.617358411788
630.4203323558163,5065.981470600377
631.4213098729228,5078.787370188833
632.4222873900294,5108.582312911317
633.423264907136,5128.562888005252
634.4242424242425,5147.188053383871
635.425219941349,5174.595275364199
636.4261974584556,5200.457447116853
637.4271749755621,5221.172889788141
638.4281524926687,5245.683869762727
639.4291300097752,5270.355781830427
640.4301075268818,5295.449464203431
641.4310850439883,5317.658158915571
642.4320625610949,5337.917148167632
643.4330400782014,5362.57086649866
644.434017595308,5395.521565546265
645.4349951124145,5426.905767626224
646.4359726295211,5463.658072642439
647.4369501466276,5510.626427315491
648.4379276637342,5563.825863477433
649.4389051808407,5624.640016701332
650.4398826979473,5697.323978871155
651.4408602150538,5769.55400644894
652.4418377321604,5851.640084263357
653.4428152492669,5945.965446282487
654.4437927663735,6044.982762688414
655.44477028348,6143.156218541483
656.4457478005866,6243.583001747614
657.4467253176931,6358.950472386113
658.4477028347997,6472.504752853634
659.4486803519062,6588.282812724276
660.4496578690128,6694.969848639153
661.4506353861193,6784.397940930878
662.4516129032259,6856.186574161436
663.4525904203324,6898.614774258433
664.453567937439,6895.754155518896
665.4545454545455,6864.766974284529
666.455522971652,6810.37943117365
667.4565004887586,6741.964417753827
668.4574780058651,6675.077971662139
669.4584555229717,6619.162772822873
670.4594330400782,6566.091061685565
671.4604105571848,6545.542011964955
672.4613880742913,6549.853865117847
673.4623655913979,6570.150598874103
674.4633431085044,6611.760445129913
675.464320625611,6680.0983310670645
676.4652981427175,6779.528610822486
677.4662756598241,6897.8309994538695
678.4672531769306,7037.450451157292
679.4682306940372,7208.10373447709
680.4692082111437,7410.468760332514
681.4701857282503,7629.293513783275
682.4711632453568,7870.3708424984925
683.4721407624634,8116.4720110276385
684.4731182795699,8358.549093671732
685.4740957966765,8579.775072697998
686.475073313783,8758.014046596609
687.4760508308896,8868.58503118667
688.4770283479961,8898.547033333514
689.4780058651027,8816.985329569248
690.4789833822092,8632.364730709132
691.4799608993158,8380.92902410748
692.4809384164223,8085.367869024245
693.4819159335289,7761.1451881804405
694.4828934506354,7441.637761553926
695.483870967742,7158.536061638937
696.4848484848485,6922.869538622054
697.485826001955,6708.169851806612
698.4868035190616,6520.155629317849
699.4877810361681,6374.8895561344425
700.4887585532747,6246.218709471048
701.4897360703812,6135.098457523625
702.4907135874878,6052.2636731295115
703.4916911045943,5979.617104696905
704.4926686217009,5914.890405560106
705.4936461388074,5861.4800023514335
706.494623655914,5813.3978662660875
707.4956011730205,5776.091162832329
708.4965786901271,5743.255522241302
709.4975562072336,5718.622875855327
710.4985337243402,5698.285950236045
711.4995112414467,5675.387377560457
712.5004887585533,5651.950059323184
713.5014662756598,5638.535796953212
714.5024437927664,5627.120105402744
715.5034213098729,5613.423597022476
716.5043988269795,5599.866090229026
717.505376344086,5589.063692928468
718.5063538611926,5582.411294100043
719.5073313782991,5579.543494504432
720.5083088954057,5575.369522088603
721.5092864125122,5572.671882578317
722.5102639296188,5575.0919995218865
723.5112414467253,5572.495597679542
724.5122189638319,5567.373008624089
725.5131964809384,5574.26814101551
726.514173998045,5574.30481476882
727.5151515151515,5578.676953668609
728.516129032258,5578.931178613727
729.5171065493646,5573.198137759771
730.5180840664711,5571.509977222696
731.5190615835777,5579.210382530364
732.5200391006842,5584.913066747934
733.5210166177908,5578.518559692718
734.5219941348973,5583.5759756691305
735.5229716520039,5596.862583294048
736.5239491691104,5609.364816303022
737.524926686217,5620.138946752386
738.5259042033235,5633.5482523472265
739.5268817204301,5645.5701610003725
740.5278592375366,5653.346929270828
741.5288367546432,5667.575575994604
742.5298142717497,5680.967990601561
743.5307917888563,5694.428208684998
744.5317693059628,5714.196339550228
745.5327468230694,5736.479773298757
746.5337243401759,5753.140751518881
747.5347018572825,5777.02064799834
748.535679374389,5804.59509062867
749.5366568914956,5837.071100097182
750.5376344086021,5879.234957504464
