Raman Shift,Intensity 
400,0.006709241
401,-0.006123816
402,-0.015122556
403,-0.008031962
404,0.010156262
405,0.012608864
406,-0.018498435
407,-0.011156173
408,0.010220711
409,-0.014096249
410,0.022416349
411,0.019631706
412,0.00770179
413,0.003259718
414,0.008167219
415,-0.004849042
416,-0.006933384
417,-0.0138128
418,0.00500175
419,-0.008179496
420,0.001918718
421,-0.0253551
422,0.012616988
423,-0.012558034
424,-0.013653231
425,0.003095089
426,0.008824144
427,0.009322792
428,0.000274937
429,0.010017671
430,-0.014848892
431,-0.001872016
432,0.002047013
433,-0.012637938
434,-0.023856035
435,-0.045429052
436,-0.022066331
437,0.004864518
438,0.011222608
439,0.016604017
440,0.016220274
441,-0.018310157
442,-0.021145401
443,0.003607783
444,-0.002495535
445,-0.002544052
446,-0.003709383
447,0.014226417
448,0.006745149
449,-0.009064707
450,0.027532613
451,-0.015852291
452,-0.001125788
453,-0.030123529
454,-0.011965406
455,-0.003511577
456,0.00513516
457,-0.002741856
458,-0.011004264
459,0.012457188
460,0.021254746
461,0.006645983
462,-0.01550752
463,-0.012868926
464,0.001519371
465,0.017105142
466,0.00354821
467,0.005983589
468,0.001224454
469,0.013481243
470,0.028654526
471,0.012141486
472,0.013915544
473,-0.006962781
474,-0.028429491
475,-0.01241183
476,0.032769051
477,-0.007434525
478,-0.004428281
479,-0.025021577
480,0.032106921
481,-0.008527678
482,0.013695923
483,-0.008328038
484,0.016495486
485,0.014421796
486,-0.014125675
487,0.011001848
488,-0.017140027
489,-0.002842336
490,0.00748382
491,-0.018615301
492,-0.004421466
493,-0.013918364
494,0.009610867
495,0.023832371
496,-0.010500869
497,0.009819617
498,0.016178872
499,0.010904244
500,-0.022483035
501,-0.015326031
502,0.005574684
503,-0.010755445
504,0.013349782
505,-0.007078291
506,0.018539463
507,-0.016398299
508,0.021376527
509,-0.00034804
510,0.014611062
511,0.009399164
512,-0.000293152
513,-0.00344948
514,0.022393708
515,-0.028878821
516,-0.005756672
517,0.017193398
518,0.006839191
519,0.008989337
520,0.00721629
521,-0.000518491
522,-0.005045322
523,-0.002683238
524,0.00483491
525,-0.030499109
526,-0.004384967
527,-0.009907527
528,0.008982074
529,-0.001298077
530,0.03233595
531,0.003501241
532,0.001976047
533,-0.032675622
534,-0.011200367
535,0.017705306
536,0.010725512
537,0.012017475
538,-0.011166002
539,0.006276809
540,0.00554675
541,0.007590767
542,0.015772012
543,-0.009626949
544,0.015935821
545,-0.00295351
546,0.001127428
547,0.002108392
548,-0.017338037
549,0.034899132
550,-0.028286602
551,0.032399882
552,-0.020048277
553,-0.013081281
554,0.006669978
555,-0.011668054
556,0.02350552
557,-0.014115472
558,0.013154063
559,-0.007863657
560,0.025526898
561,-0.0076587
562,0.025338482
563,0.017096809
564,0.016068204
565,0.007069782
566,-0.003059696
567,0.014641046
568,-0.012115716
569,-0.001566038
570,-0.01518578
571,0.000492804
572,-0.016191263
573,0.002246914
574,-0.039742856
575,-0.002963249
576,0.033168448
577,0.031662186
578,-0.007877382
579,-0.006839685
580,0.000384883
581,0.001092047
582,-0.021725886
583,0.024038439
584,-0.022702344
585,0.006356922
586,-0.000731868
587,0.017363258
588,-0.019962871
589,0.001486831
590,0.027497803
591,-0.00362193
592,0.033668638
593,0.0151604
594,-0.008558093
595,0.008284665
596,0.012201403
597,0.004297501
598,-0.053733996
599,0.007177031
600,-0.009812115
601,-0.011446008
602,-0.015020141
603,-0.018006725
604,0.003761044
605,0.008802962
606,-0.016387495
607,-0.013491675
608,0.011276984
609,0.015977076
610,0.012780327
611,-0.007000789
612,-0.021543192
613,-0.010371297
614,0.009012361
615,0.007934225
616,0.001403748
617,-0.003140121
618,0.00411868
619,0.021049559
620,-0.007083076
621,-0.006641918
622,-0.002267122
623,-0.006993843
624,0.002626698
625,-0.008988512
626,-0.012564858
627,-0.022794235
628,-0.010793613
629,-0.018939783
630,-0.015780902
631,-0.021958519
632,0.002548501
633,0.010866628
634,-0.003239608
635,0.020737406
636,0.007508106
637,-0.005606636
638,0.00928005
639,0.005507284
640,0.019464729
641,0.017728771
642,-0.003595451
643,0.005643053
644,0.001487379
645,0.0067993
646,0.022608702
647,0.019743898
648,-0.035498037
649,-0.011113613
650,0.002213238
651,0.032652546
652,0.011200313
653,-0.004279755
654,0.02129222
655,0.005521551
656,0.004364284
657,-0.02280509
658,0.011547537
659,-0.001410917
660,-0.016559783
661,0.007708615
662,0.015314317
663,-0.015179208
664,0.028395665
665,-0.012453493
666,0.01258482
667,0.002884867
668,0.019320009
669,0.005201052
670,-0.015301258
671,0.007627777
672,-0.019047529
673,-0.011632126
674,-0.014857607
675,0.011022497
676,-0.025750708
677,0.007766025
678,0.036092049
679,-0.027526437
680,-0.008479978
681,0.010314389
682,-0.021227648
683,-0.038265414
684,0.000232251
685,-0.010135936
686,-0.02803015
687,0.015987527
688,0.011783776
689,0.03051946
690,0.025206415
691,-0.040234064
692,0.00503501
693,0.007878015
694,-0.022030769
695,0.001514598
696,0.017300287
697,0.006590339
698,0.004868672
699,-0.003183334
700,0.009706205
701,0.007112304
702,-0.002755954
703,0.010111072
704,-0.001863551
705,-0.008087642
706,0.004230043
707,0.004820599
708,0.002482901
709,-0.025250266
710,-0.009758966
711,0.017071911
712,-0.004220877
713,0.01904208
714,0.011339801
715,-0.005604352
716,-0.003868251
717,-0.006797885
718,-0.011463084
719,0.015769527
720,-0.01025632
721,-0.000465561
722,0.033493494
723,-0.004653035
724,0.00441969
725,0.012655992
726,-0.020870686
727,-0.025032422
728,-0.008429596
729,0.015785441
730,0.014480039
731,0.000749214
732,-0.028077229
733,0.008967353
734,-0.00186396
735,-0.00389559
736,-0.001719895
737,-0.005610764
738,-0.005239359
739,0.013023391
740,0.000908571
741,0.027637766
742,0.007476473
743,-0.012735778
744,-0.006544815
745,0.0055329
746,-0.00108341
747,0.028624478
748,0.005984534
749,-0.000525519
750,0.000294983
751,-0.028513565
752,-0.002464971
753,0.017879289
754,-0.000796682
755,-0.029428342
756,-0.022627363
757,-0.002811143
758,-0.006566492
759,-0.009998969
760,0.006450855
761,0.013731254
762,0.006809563
763,0.025508551
764,-0.028714468
765,-0.013071868
766,0.000274239
767,-0.011862418
768,0.000767089
769,0.020149575
770,-0.013993596
771,-0.017580542
772,-0.005418701
773,0.01934442
774,0.02182466
775,-0.0050707
776,-0.011235794
777,0.006101826
778,-0.006930555
779,-0.015135696
780,-0.011688782
781,-0.004970352
782,-0.006990498
783,0.00886751
784,-0.015445713
785,0.00714491
786,0.004571081
787,0.030129463
788,-0.009419386
789,0.005218221
790,-0.008639837
791,0.023953415
792,-0.011583433
793,-0.007548607
794,-0.01502808
795,-0.012025061
796,0.010112534
797,0.003598991
798,0.008835933
799,-0.004261899
800,-0.023669607
801,-0.018619855
802,-0.02614825
803,0.008617555
804,0.011572743
805,-0.002052316
806,-0.028309796
807,0.011606814
808,-0.015940545
809,0.025107899
810,0.002260702
811,-0.017364234
812,0.027779743
813,-0.021002655
814,-0.000710585
815,0.017595471
816,0.004045563
817,-0.010051514
818,0.000948096
819,0.023947328
820,-0.025361995
821,0.011692405
822,0.009642872
823,0.009420693
824,-0.001726684
825,0.006076064
826,0.00121177
827,0.019151459
828,-0.0148331
829,-0.008136192
830,0.014186749
831,0.014827588
832,-0.014273192
833,-0.022414926
834,0.00080831
835,-0.007228263
836,-0.006125774
837,-0.008260253
838,0.001334313
839,-0.011089935
840,-0.011516425
841,-0.009114216
842,-0.012391113
843,-0.011964447
844,0.003722245
845,-0.020298359
846,-0.017020115
847,-0.010545256
848,-0.008500878
849,0.049008307
850,-0.022189045
851,-0.007825672
852,-0.015981418
853,-0.00586096
854,-0.032558578
855,-0.025326136
856,-0.001025735
857,0.004048735
858,-0.022548728
859,0.023183209
860,-0.013302007
861,-0.010344264
862,-0.031714972
863,-0.02559087
864,-0.019004088
865,-0.01800769
866,-0.016815132
867,0.005440019
868,0.0032018
869,-0.022705952
870,0.008756725
871,0.014338445
872,-0.016853344
873,0.007192485
874,-0.002143542
875,-0.022883567
876,0.038838624
877,0.000728742
878,-0.013865781
879,-0.00242718
880,-0.013774701
881,0.030618987
882,0.004519149
883,-0.016296933
884,-0.008139856
885,0.001283458
886,0.000666215
887,-0.00516455
888,0.000808929
889,-0.009159794
890,0.000933937
891,-0.03792542
892,-0.013135167
893,-0.00435103
894,0.000302671
895,-0.001894292
896,0.006011644
897,-0.001612005
898,0.007574878
899,-0.00488977
900,-0.020678181
901,-0.021721237
902,0.010489869
903,-0.020994209
904,-0.012051997
905,-0.022021714
906,-0.037475999
907,9.55E-05
908,-0.010456012
909,0.012845613
910,0.001995259
911,0.001151255
912,0.001770457
913,0.018438934
914,0.006348832
915,0.022960663
916,0.031301521
917,0.00364728
918,0.00410949
919,0.035677728
920,0.02819267
921,0.039628455
922,0.080979126
923,0.039862737
924,0.045575462
925,0.048303123
926,0.040972965
927,0.08195193
928,0.098060341
929,0.088422019
930,0.116599895
931,0.167603686
932,0.186774587
933,0.209930839
934,0.2155097
935,0.249805785
936,0.25315211
937,0.301408741
938,0.367244082
939,0.365578445
940,0.416127592
941,0.433527142
942,0.513125403
943,0.519417119
944,0.575722384
945,0.614705283
946,0.645781661
947,0.66197833
948,0.721570628
949,0.759251082
950,0.805200286
951,0.827257516
952,0.880012656
953,0.881611357
954,0.909634087
955,0.949039154
956,0.964676311
957,0.973002982
958,1.002581997
959,1.016203947
960,1.026140865
961,1.005082359
962,1.000586212
963,0.967388441
964,0.954310224
965,0.957405785
966,0.905555531
967,0.884372366
968,0.872505715
969,0.816121054
970,0.780624376
971,0.725057262
972,0.743269899
973,0.722391611
974,0.631864788
975,0.605823714
976,0.559671159
977,0.541394162
978,0.48646842
979,0.450759959
980,0.415291575
981,0.361023724
982,0.342161502
983,0.327452464
984,0.275839419
985,0.260793887
986,0.242885202
987,0.212272122
988,0.182140622
989,0.163602201
990,0.143194823
991,0.133413682
992,0.11320166
993,0.130062789
994,0.112527442
995,0.061866864
996,0.079221568
997,0.0664266
998,0.040012754
999,0.058630258
1000,0.069730578
1001,0.059716467
1002,0.060290699
1003,0.052686616
1004,0.060011072
1005,0.050488543
1006,0.054250304
1007,0.090599982
1008,0.060044036
1009,0.066980812
1010,0.093696435
1011,0.112554829
1012,0.111514511
1013,0.102322303
1014,0.139740273
1015,0.146858556
1016,0.149971454
1017,0.146457795
1018,0.178787963
1019,0.185712115
1020,0.187716676
1021,0.234933645
1022,0.244716083
1023,0.251764387
1024,0.258235756
1025,0.272570729
1026,0.280194842
1027,0.314668791
1028,0.338459754
1029,0.328111058
1030,0.365963165
1031,0.373960654
1032,0.418581733
1033,0.428658647
1034,0.443673338
1035,0.46878991
1036,0.471008969
1037,0.487913619
1038,0.492439689
1039,0.517070566
1040,0.567457124
1041,0.535080796
1042,0.559155176
1043,0.569470535
1044,0.575594726
1045,0.585704095
1046,0.606094902
1047,0.583831279
1048,0.609199761
1049,0.585571443
1050,0.618102137
1051,0.599941771
1052,0.604665252
1053,0.591767019
1054,0.596024544
1055,0.585375851
1056,0.593256797
1057,0.56963176
1058,0.529901539
1059,0.553975441
1060,0.515778316
1061,0.510409078
1062,0.498905353
1063,0.49018457
1064,0.483262715
1065,0.483964113
1066,0.415505248
1067,0.429449135
1068,0.377140588
1069,0.403718081
1070,0.344657769
1071,0.343658184
1072,0.335687611
1073,0.310748469
1074,0.267897598
1075,0.287501723
1076,0.264298947
1077,0.226135713
1078,0.175490561
1079,0.215946202
1080,0.198029629
1081,0.190198189
1082,0.185275954
1083,0.130658456
1084,0.131123959
1085,0.129219518
1086,0.145574405
1087,0.100242131
1088,0.128986246
1089,0.095775218
1090,0.079120222
1091,0.079701665
1092,0.058618047
1093,0.042630706
1094,0.035562099
1095,0.012491533
1096,0.037525382
1097,0.046647018
1098,0.017126902
1099,0.075921987
1100,0.039646708
1101,0.048582543
1102,0.01099373
1103,0.011297237
1104,0.035783226
1105,0.027785025
1106,-0.002241871
1107,0.007927885
1108,-0.009520262
1109,0.004306924
1110,-0.012975994
1111,0.002715271
1112,0.017908518
1113,-0.000275114
1114,0.015546442
1115,-0.007209417
1116,0.013641445
1117,0.019826967
1118,0.022308985
1119,-0.005466484
1120,-0.00945489
1121,-0.014593196
1122,0.005296639
1123,0.001329593
1124,-0.009954178
1125,-0.013769935
1126,-0.005734157
1127,-0.007814666
1128,-0.020429652
1129,0.011229151
1130,-0.010732879
1131,0.012917816
1132,-0.020254561
1133,-0.000967856
1134,0.016865138
1135,-0.005590803
1136,-0.001005157
1137,0.003579862
1138,0.013334651
1139,-0.028602282
1140,0.009967177
1141,0.017698648
1142,0.003879188
1143,0.00289897
1144,0.006567339
1145,0.003866484
1146,-0.011349128
1147,-0.007604454
1148,0.018788987
1149,0.003380392
1150,0.004437661
1151,0.001856645
1152,0.014058422
1153,0.025100263
1154,-0.012893801
1155,0.002794435
1156,0.016763849
1157,0.007445718
1158,0.020177114
1159,0.011237377
1160,-0.036763086
1161,-0.0152804
1162,-0.015479577
1163,0.002036488
1164,0.010827994
1165,-0.005453382
1166,0.02226544
1167,-0.014676783
1168,-0.012173026
1169,0.004651231
1170,-0.008177045
1171,-0.021934338
1172,-0.008889942
1173,0.010690966
1174,-0.012469654
1175,-0.020779212
1176,0.007589397
1177,0.002706476
1178,-0.024268964
1179,0.013958983
1180,0.004218561
1181,-0.007722427
1182,-0.000874724
1183,-0.007389892
1184,-0.00999256
1185,-0.00473224
1186,-0.018743763
1187,0.008831457
1188,-0.01141198
1189,-0.017576261
1190,0.012368383
1191,-0.000148564
1192,0.050603538
1193,-0.028415693
1194,0.018054671
1195,-0.011871239
1196,-0.016971201
1197,0.000913367
1198,0.029064254
1199,0.014763865
1200,0.004052741
1201,0.001475753
1202,0.014449189
1203,-0.029255843
1204,0.006550171
1205,-0.002733146
1206,0.02470167
1207,0.008107397
1208,0.006835143
1209,-0.023749214
1210,0.001841425
1211,0.013827391
1212,0.004289174
1213,0.014165023
1214,-0.001822657
1215,0.023371991
1216,0.024880227
1217,-0.020307386
1218,0.00989553
1219,0.009678008
1220,-0.002369887
1221,0.012109722
1222,0.015284872
1223,0.003344512
1224,0.02961336
1225,0.007493858
1226,-0.008003589
1227,-0.013858737
1228,0.016767354
1229,-0.016169813
1230,-0.028037019
1231,0.009650465
1232,-0.007392434
1233,-0.001117049
1234,0.000853668
1235,0.002079485
1236,-0.021158709
1237,-0.017076683
1238,0.002037818
1239,-0.005736587
1240,-0.004605342
1241,0.006036358
1242,0.016143857
1243,0.009373497
1244,-0.013873935
1245,0.00662002
1246,-0.019626042
1247,-0.012394612
1248,-0.007742602
1249,-0.00488578
1250,-0.016822474
1251,0.012109285
1252,0.010518171
1253,0.00399269
1254,0.016170301
1255,0.01129911
1256,0.02495321
1257,-0.003460172
1258,0.003292821
1259,0.002816099
1260,-0.008564106
1261,0.008759316
1262,0.000531067
1263,0.013880512
1264,0.009517786
1265,-0.007344722
1266,0.007600463
1267,0.002028678
1268,0.007292124
1269,-0.025406063
1270,0.013327951
1271,0.020686921
1272,0.029753212
1273,0.01276328
1274,0.013861288
1275,0.005992867
1276,0.009241181
1277,0.001963478
1278,0.002333849
1279,-0.000132029
1280,0.028779248
1281,-0.02052138
1282,0.003409103
1283,-0.020904157
1284,0.004428283
1285,0.01602859
1286,-0.003112203
1287,-0.023184234
1288,-0.005532047
1289,-0.035876394
1290,0.002108292
1291,-0.036150848
1292,0.012066064
1293,0.015695419
1294,-0.005257009
1295,0.017287208
1296,0.003809787
1297,-0.007434411
1298,-0.000330995
1299,-0.011314744
1300,0.006967759
1301,-0.000432163
1302,0.006562573
1303,0.015923366
1304,0.004205703
1305,-0.028037179
1306,-0.028278866
1307,0.002668233
1308,-0.025166105
1309,-0.021910792
1310,-0.005011085
1311,0.014922603
1312,-0.014970502
1313,0.003672
1314,-0.007154913
1315,0.012826515
1316,0.002291561
1317,-0.027184472
1318,-0.014137877
1319,0.018816756
1320,0.002364629
1321,0.01440816
1322,0.003532699
1323,0.035418708
1324,0.009215347
1325,-0.009194066
1326,-0.0251627
1327,-0.023340374
1328,0.011467372
1329,0.001689069
1330,0.015737226
1331,-0.01442045
1332,-0.006209327
1333,-0.002363126
1334,-0.004972679
1335,0.023084833
1336,0.002102221
1337,0.004870014
1338,-0.013734645
1339,0.005008325
1340,0.003207224
1341,0.020369078
1342,0.024031709
1343,-0.016432174
1344,0.020127289
1345,-0.014499551
1346,0.000716742
1347,-0.009669202
1348,-0.023322261
1349,0.00209762
1350,0.007662233
1351,0.007094988
1352,-0.000313726
1353,0.001805698
1354,0.001692145
1355,-0.000956974
1356,0.011002281
1357,0.006180203
1358,-0.025265441
1359,0.015384179
1360,0.013580787
1361,0.007482165
1362,-0.033260978
1363,0.017030728
1364,-0.007623258
1365,0.012963461
1366,0.01632316
1367,0.010750262
1368,-0.00334768
1369,-0.006909326
1370,-0.007907985
1371,-0.005189388
1372,0.000838254
1373,-0.003335738
1374,-0.012679815
1375,0.011237426
1376,-0.003164996
1377,0.008565564
1378,0.021628676
1379,0.013515903
1380,0.002477529
1381,-0.001461816
1382,-0.007535348
1383,-0.001183312
1384,-0.013634402
1385,0.027762492
1386,-0.000177351
1387,0.016428111
1388,0.003167912
1389,-0.013989891
1390,0.009101351
1391,-0.019215271
1392,-0.00899752
1393,0.006488319
1394,0.003404061
1395,-0.021007979
1396,0.017793196
1397,0.033335495
1398,0.012198282
1399,-0.027214017
1400,0.021092869
1401,0.011369908
1402,-0.005600807
1403,0.002702342
1404,0.000522482
1405,-0.014944728
1406,-0.024108817
1407,0.011100199
1408,-0.001068816
1409,0.020503411
1410,0.016556714
1411,0.013495667
1412,-0.002898526
1413,-0.015927327
1414,0.001845759
1415,-0.020822288
1416,0.005147477
1417,0.01452373
1418,-3.61E-05
1419,0.032560005
1420,-0.009307815
1421,0.030940914
1422,0.027980713
1423,0.003433232
1424,-0.000347684
1425,0.000768351
1426,0.027122796
1427,0.002335062
1428,-0.000840962
1429,0.00819094
1430,-0.00559426
1431,0.004304144
1432,-0.02809691
1433,-0.007836468
1434,-0.011002989
1435,-0.026623459
1436,-0.015803343
1437,0.018752899
1438,0.008369082
1439,0.001075866
1440,-0.025669915
1441,0.004198974
1442,0.004818119
1443,0.016089523
1444,-0.002985306
1445,0.010476963
1446,-0.016996664
1447,0.004963697
1448,0.007025191
1449,0.01429328
1450,-0.004854051
1451,0.008600373
1452,0.003315086
1453,-0.009209484
1454,0.001345732
1455,0.014984351
1456,-0.037285406
1457,-0.013349931
1458,0.007854331
1459,0.010889263
1460,0.016944156
1461,0.008181364
1462,-0.024850773
1463,0.013890157
1464,-0.01895734
1465,-0.021329468
1466,0.006346819
1467,-0.010589165
1468,0.014240932
1469,0.005310219
1470,-0.008779568
1471,0.026901222
1472,-0.010394381
1473,0.016049347
1474,0.023719983
1475,-0.001797158
1476,-0.006488394
1477,0.008607104
1478,0.035211763
1479,-0.012322536
1480,-0.007429554
1481,-0.022983123
1482,-0.004603336
1483,0.019025328
1484,-0.000121914
1485,-0.005701235
1486,0.007229933
1487,-0.01200104
1488,-0.010681308
1489,0.000988681
1490,0.020847236
1491,0.014246802
1492,-0.002396616
1493,0.017582602
1494,-0.012246464
1495,-0.000105144
1496,-0.003753864
1497,0.015614124
1498,-0.021509556
1499,0.024717155
1500,0.014677693
1501,0.021615841
1502,0.002343388
1503,-0.004546732
1504,-0.023023377
1505,-0.006509914
1506,0.007959212
1507,-0.020283027
1508,0.049452378
1509,0.015803621
1510,-0.016177063
1511,0.005175634
1512,0.022029013
1513,-0.004030008
1514,0.005616935
1515,0.017132414
1516,-0.010128006
1517,-0.022622059
1518,0.012003031
1519,0.008788268
1520,-0.00173472
1521,0.011720797
1522,-0.004296373
1523,-0.002469224
1524,0.000330724
1525,-0.002029217
1526,-0.01148282
1527,-0.01039109
1528,0.014005323
1529,0.008276701
1530,0.025038132
1531,-0.000815724
1532,0.006433808
1533,-0.002951374
1534,-0.01947062
1535,-0.000267331
1536,-0.004407178
1537,0.012748741
1538,-0.025634217
1539,-0.013885855
1540,-0.002580011
1541,0.010254903
1542,0.005090933
1543,0.005357675
1544,0.011959759
1545,-0.002322757
1546,0.018541927
1547,-0.002783488
1548,0.010762271
1549,-0.002093335
1550,-0.002838901
1551,-0.019924534
1552,-0.003301345
1553,-0.002247591
1554,0.000153624
1555,-0.003622352
1556,-0.009806569
1557,0.00891424
1558,-0.011275838
1559,-0.00917289
1560,-0.02076209
1561,0.011033429
1562,-0.007367868
1563,-0.004080935
1564,0.014415676
1565,-0.00274212
1566,-0.001384752
1567,-0.003172787
1568,-0.007943584
1569,0.020707177
1570,0.002431537
1571,-0.015198393
1572,0.009273047
1573,0.037187421
1574,0.016080013
1575,0.009562243
1576,-0.013998055
1577,0.000766202
1578,-0.036703316
1579,-0.01888597
1580,-0.018208219
1581,-0.000249803
1582,0.004812283
1583,-0.005640361
1584,0.016027539
1585,0.00065167
1586,0.011890277
1587,-0.004959781
1588,-0.018771855
1589,0.022590855
1590,0.008076278
1591,0.016187996
1592,-0.002496548
1593,-0.009272602
1594,-0.000857669
1595,0.027259537
1596,-0.005525302
1597,-0.015912182
1598,-0.00834365
1599,-0.01529377
1600,0.004289563
1601,0.002388773
1602,0.001234021
1603,0.001106345
1604,0.025722045
1605,-0.017212138
1606,0.002516956
1607,-0.002666524
1608,0.006693345
1609,-0.041311372
1610,0.010970256
1611,-0.037115797
1612,0.006767694
1613,-0.00473611
1614,-0.000695577
1615,0.007214197
1616,0.005795339
1617,-0.019704568
1618,-0.007388569
1619,0.002847608
1620,-0.014441106
1621,-0.005018848
1622,-0.008454863
1623,0.023161414
1624,0.018546031
1625,-0.012106939
1626,0.003190396
1627,0.017580685
1628,0.021234706
1629,-0.001419929
1630,0.023665649
1631,0.02161574
1632,-0.005260984
1633,0.014001221
1634,0.034804534
1635,0.019179174
1636,0.009056263
1637,0.007625635
1638,0.011757903
1639,0.008613388
1640,-0.00591801
1641,0.011040271
1642,0.000997235
1643,-0.002147369
1644,-0.00895369
1645,0.031967271
1646,-0.005779798
1647,0.006677952
1648,0.020292496
1649,-0.01290328
1650,0.003664136
1651,-0.021114672
1652,0.002093953
1653,-0.014486103
1654,-0.007411916
1655,0.00546082
1656,-0.021853138
1657,-0.007891121
1658,0.024375964
1659,-0.006760762
1660,-0.010738396
1661,-0.00548212
1662,0.046983253
1663,-0.015406056
1664,0.017736245
1665,-0.019194338
1666,-0.015689279
1667,0.009014689
1668,0.019906653
1669,0.004576638
1670,0.008168647
1671,-0.006612374
1672,-0.011744295
1673,0.018465946
1674,-0.029139319
1675,-0.008461818
1676,0.012439498
1677,-0.002697584
1678,-0.011343479
1679,-0.002166377
1680,0.032442222
1681,-0.013854736
1682,0.016292801
1683,-0.0114548
1684,-0.015062863
1685,0.008472105
1686,0.002640064
1687,-0.007808887
1688,-0.013934461
1689,-0.013563461
1690,0.021053237
1691,0.001175517
1692,-0.004176454
1693,0.005899947
1694,0.013517779
1695,0.031424402
1696,0.041245921
1697,0.026275437
1698,-0.031951491
1699,-0.002330128
1700,0.005712844
1701,0.010873846
1702,-0.00624586
1703,-0.006091631
1704,-0.005200959
1705,-0.000803032
1706,0.003900872
1707,-0.006488012
1708,0.009099751
1709,0.005525089
1710,-0.015766015
1711,-0.00087692
1712,-0.001763164
1713,0.013075382
1714,0.008051221
1715,-0.003840404
1716,0.008147016
1717,-0.014264794
1718,-0.010525707
1719,-0.012846481
1720,0.002747078
1721,-0.00899953
1722,-0.016554679
1723,0.03164358
1724,0.018567184
1725,0.005346056
1726,0.014167991
1727,0.01894901
1728,0.017090889
1729,0.004583607
1730,-0.00142361
1731,0.001868655
1732,-0.005744154
1733,0.020549904
1734,-0.018678644
1735,-0.011086245
1736,-0.041831777
1737,-0.004330202
1738,-0.00592335
1739,-0.015473251
1740,0.009324519
1741,0.003795689
1742,-0.008507658
1743,0.004943793
1744,0.017980214
1745,0.004812973
1746,-0.004912709
1747,-0.023796869
1748,-0.005159916
1749,0.004369705
1750,-0.000148913
1751,-0.008011286
1752,0.008369539
1753,0.033624936
1754,-0.003415425
1755,-0.00213204
1756,0.0089758
1757,-0.00178172
1758,-0.000881668
1759,0.021268711
1760,-0.005323383
1761,0.007979029
1762,0.015940772
1763,-0.018378988
1764,-0.001784183
1765,0.013165093
1766,-0.009708359
1767,0.029451598
1768,-0.017256985
1769,-0.004965293
1770,-0.000997179
1771,-0.016588059
1772,-0.012070563
1773,0.02814553
1774,-0.01692666
1775,0.013826394
1776,-0.017484527
1777,0.008085123
1778,-0.004359904
1779,0.002313484
1780,0.008275695
1781,0.011063316
1782,0.005910747
1783,-0.005855832
1784,0.028158635
1785,-0.016079602
1786,-0.00945543
1787,0.009314094
1788,0.004838527
1789,0.00374952
1790,0.01534327
1791,0.000578445
1792,0.000891651
1793,-0.026904532
1794,-0.028133576
1795,0.004394072
1796,-0.019822529
1797,0.000703436
1798,-0.010820006
1799,-0.028658222
1800,0.008634039
1801,0.0049072
1802,0.011013078
1803,-0.009142639
1804,-0.002685415
1805,0.018626583
1806,-0.013077732
1807,0.008575407
1808,-3.14E-06
1809,-0.006043829
1810,-0.018841032
1811,-0.004378929
1812,-0.011483826
1813,-0.013721921
1814,0.018585538
1815,-0.013874414
1816,0.010811859
1817,-0.019858635
1818,-0.007423281
1819,-0.006884451
1820,-0.010849656
1821,-0.009615175
1822,0.000591387
1823,0.016297815
1824,0.017997922
1825,0.01883007
1826,-0.021711482
1827,0.01596043
1828,-0.009770783
1829,-0.014877953
1830,0.001076293
1831,-0.00526125
1832,-0.013832767
1833,-0.008169184
1834,-0.008799192
1835,-0.001288928
1836,0.000891397
1837,-0.008876318
1838,-0.022375252
1839,0.001776887
1840,0.011257089
1841,0.008774988
1842,0.024772597
1843,0.007687735
1844,-0.01121574
1845,0.00620634
1846,0.002715365
1847,0.026015463
1848,-0.022518057
1849,0.015617507
1850,0.008307357
1851,0.00724613
1852,-0.020836737
1853,0.029108157
1854,-0.005951976
1855,0.027597089
1856,-0.01171787
1857,-0.012948005
1858,0.034402379
1859,-0.004142262
1860,-0.022589607
1861,-0.003081449
1862,0.003666142
1863,-0.007868125
1864,-0.010402945
1865,0.007205248
1866,-0.018405468
1867,0.026587098
1868,-0.026603501
1869,0.017693203
1870,-0.03633915
1871,-0.007397686
1872,-0.012579243
1873,0.00037521
1874,0.023840644
1875,0.014809934
1876,-0.011089788
1877,0.006468379
1878,-0.005783605
1879,-0.006190356
1880,0.000598922
1881,-0.001815725
1882,-0.00423361
1883,0.00034458
1884,0.000849544
1885,0.008616179
1886,-0.017173643
1887,0.001703092
1888,0.021077149
1889,0.005663715
1890,-0.018675781
1891,-0.004730823
1892,-0.024887682
1893,-0.006065387
1894,0.016593693
1895,-0.021533151
1896,-0.010784862
1897,0.004271076
1898,0.029869004
1899,-0.013240928
1900,0.004916342
1901,-0.005746232
1902,0.031509509
1903,0.006155373
1904,0.008220874
1905,0.010105679
1906,0.014748601
1907,-0.01272352
1908,-0.01142683
1909,-0.014332483
1910,0.023594088
1911,0.008023819
1912,-0.002481538
1913,0.010736402
1914,0.004304912
1915,0.019099993
1916,-0.013167002
1917,9.45E-05
1918,0.019660418
1919,-0.018639224
1920,-0.024714525
1921,0.007091559
1922,-0.019310757
1923,-0.008270697
1924,-0.01328196
1925,0.014331397
1926,-0.010704751
1927,-0.014769713
1928,0.007527266
1929,-0.023959667
1930,-0.002082297
1931,-0.000354072
1932,-0.004798212
1933,-0.002007792
1934,-0.021098181
1935,0.01368248
1936,-0.00946996
1937,-0.008389039
1938,-0.004918444
1939,0.00395797
1940,-0.013118853
1941,0.015775572
1942,-0.033742473
1943,0.000660344
1944,0.001201143
1945,0.009234245
1946,0.009384675
1947,0.008421594
1948,-0.006836514
1949,-0.028573581
1950,-0.003587412
1951,0.011436205
1952,0.010788186
1953,0.012989968
1954,-0.011049545
1955,0.003739458
1956,0.001882864
1957,0.004272613
1958,-0.006027081
1959,0.01260465
1960,-0.002118082
1961,-0.003015797
1962,0.019404472
1963,-0.001450184
1964,-0.010513162
1965,0.003592944
1966,0.008964988
1967,0.022942272
1968,0.001793765
1969,0.010912746
1970,0.032945269
1971,-0.000972855
1972,0.005340256
1973,-0.017845838
1974,0.0126295
1975,-0.003449961
1976,0.009889904
1977,0.003934754
1978,0.00627886
1979,0.010113009
1980,0.011352319
1981,0.000965523
1982,-0.020470691
1983,-0.002404269
1984,0.007205649
1985,0.005915479
1986,-0.010071593
1987,0.002865804
1988,-0.015698938
1989,-0.010630174
1990,0.007440445
1991,-0.014996933
1992,0.018900488
1993,-0.016827393
1994,0.014281196
1995,-0.005407341
1996,-0.003233383
1997,0.010266582
1998,0.019135097
1999,0.015776679
2000,-0.030058303
2001,-0.009028788
2002,0.010903186
2003,0.01004304
2004,0.004404316
2005,-0.022736601
2006,0.030325169
2007,0.02432881
2008,-0.027176426
2009,0.014977369
2010,-0.01330823
2011,-0.007572159
2012,-0.024631132
2013,-0.008683904
2014,-0.01922514
2015,0.000511851
2016,-0.015240729
2017,-0.015830091
2018,0.012726849
2019,0.0152228
2020,0.008875845
2021,0.004435132
2022,-0.004276402
2023,0.003097245
2024,0.024557707
2025,-0.019004357
2026,-0.023538041
2027,-0.006316237
2028,-0.014290582
2029,0.016048804
2030,0.004222726
2031,0.000536966
2032,-0.019036639
2033,-0.015084054
2034,0.021416853
2035,0.009257832
2036,-0.027556028
2037,0.0083555
2038,-0.006943965
2039,0.011842677
2040,0.004437417
2041,0.000524808
2042,-0.00693009
2043,-0.000608094
2044,0.007459142
2045,0.00770973
2046,-0.010495568
2047,-0.01989678
2048,-0.010370112
2049,-0.004097057
2050,-0.01250475
2051,0.010222974
2052,0.019190237
2053,-0.024813975
2054,0.003540358
2055,0.001279943
2056,0.00418074
2057,-0.008118322
2058,-0.028729455
2059,0.003384817
2060,0.002245191
2061,0.014777896
2062,-0.014628878
2063,-0.009440983
2064,-0.015539571
2065,-0.006250877
2066,-0.01075937
2067,0.006396732
2068,0.004775694
2069,-0.005095228
2070,-0.030281882
2071,0.006322658
2072,-0.02670214
2073,-0.00345344
2074,-0.006448108
2075,0.016468613
2076,-0.011032984
2077,-0.006821039
2078,0.000779892
2079,-0.012262813
2080,-0.008558132
2081,-0.017137933
2082,0.001744467
2083,0.013875402
2084,0.007943099
2085,-0.016392064
2086,0.010599318
2087,-0.009350969
2088,-0.003040164
2089,0.006834075
2090,-0.002883866
2091,0.014076224
2092,-0.002593032
2093,0.000706911
2094,0.022704455
2095,-0.026050224
2096,-0.001509352
2097,0.007780003
2098,0.004746753
2099,0.005554557
2100,-0.003776889
2101,-0.011755807
2102,-0.002129185
2103,0.017613661
2104,0.023434097
2105,0.007239457
2106,0.008700665
2107,-0.009896358
2108,0.003587988
2109,-0.011254514
2110,0.022229298
2111,-0.009683024
2112,0.016418565
2113,-0.011588913
2114,0.008102514
2115,-0.018191901
2116,0.010981591
2117,0.012191773
2118,-0.002962943
2119,-0.004605185
2120,-0.004909774
2121,-0.009857538
2122,-0.015680417
2123,-0.020653958
2124,0.012969789
2125,0.006146527
2126,0.034905054
2127,-0.000244275
2128,0.017169603
2129,-0.000889577
2130,-0.00869752
2131,-0.010499783
2132,0.017507545
2133,0.014352189
2134,-0.016110115
2135,-0.013291382
2136,0.008462376
2137,0.00671432
2138,-0.004866609
2139,-0.015387608
2140,-0.010217994
2141,0.011330659
2142,0.000908624
2143,0.004445025
2144,-0.018864854
2145,-0.011929758
2146,0.010999808
2147,0.005671813
2148,0.020569951
2149,-0.000308523
2150,0.020239708
2151,-0.011083002
2152,-0.003061111
2153,0.013780361
2154,0.036222494
2155,-0.007991257
2156,-0.011024376
2157,0.000123575
2158,0.027498727
2159,0.008411812
2160,-0.010765323
2161,0.001218557
2162,0.009284833
2163,-0.019448447
2164,-0.013919404
2165,-0.014349437
2166,0.008295849
2167,0.007768194
2168,-0.020789523
2169,-0.007214872
2170,0.004964608
2171,0.013096628
2172,-0.00645205
2173,0.013626719
2174,-0.010411668
2175,0.000653792
2176,-0.025023388
2177,-0.017020869
2178,-0.010620201
2179,0.018492806
2180,0.002113613
2181,-0.006457982
2182,0.016502403
2183,0.018456185
2184,-0.008916154
2185,0.001863687
2186,0.023232506
2187,-0.000157746
2188,0.000177764
2189,-0.002440214
2190,-0.018103024
2191,-0.002807037
2192,0.013146498
2193,0.01934797
2194,-0.006088856
2195,0.014823666
2196,-0.01419489
2197,0.011215022
2198,0.004688249
2199,0.011013196
2200,0.011429316
2201,0.000296856
2202,0.003960666
2203,-0.013963252
2204,-0.030124561
2205,-0.014091562
2206,-0.008807644
2207,0.007370835
2208,-0.004646133
2209,0.001486345
2210,-0.015575989
2211,0.025393375
2212,-0.022199593
2213,0.002183566
2214,0.002765287
2215,0.023112271
2216,-0.024070467
2217,-0.010469973
2218,-0.013369827
2219,-0.017378651
2220,-0.007103803
2221,-0.012532216
2222,-0.027897169
2223,0.004306111
2224,0.009509161
2225,0.02479635
2226,0.001671477
2227,-0.025839702
2228,-0.018806545
2229,0.008980395
2230,-0.007854564
2231,0.004032137
2232,0.002948095
2233,-0.017638638
2234,-0.005029243
2235,0.011557267
2236,-0.008528474
2237,-0.00764971
2238,-0.028754674
2239,0.015699424
2240,-0.007799412
2241,0.010118393
2242,-0.000500455
2243,0.015198611
2244,0.014517364
2245,-0.01793773
2246,0.016249244
2247,0.007843096
2248,0.015805446
2249,0.007040526
2250,0.013350982
2251,-0.00417511
2252,0.01730811
2253,-0.020627368
2254,0.012273655
2255,-0.013833993
2256,0.010906126
2257,-0.00593141
2258,0.01020093
2259,-0.008990228
2260,0.004098974
2261,-0.006788241
2262,0.025657287
2263,-0.007719979
2264,-0.012181786
2265,-0.002657957
2266,-0.019059518
2267,0.007541233
2268,-0.022660677
2269,-0.00356038
2270,-0.011766033
2271,-0.01655059
2272,0.00972574
2273,-0.020344197
2274,-0.019544088
2275,0.009816147
2276,-0.019340688
2277,-0.023186519
2278,-0.001120645
2279,0.004129961
2280,0.013849254
2281,0.003037528
2282,0.013622034
2283,-0.01086497
2284,-0.013192938
2285,-0.009897004
2286,-0.007858138
2287,0.025715374
2288,-0.007271718
2289,0.004758285
2290,0.014951656
2291,-0.037438922
2292,0.011311446
2293,0.009410254
2294,-0.015167296
2295,0.008976938
2296,-0.006328565
2297,0.013973858
2298,-0.00507906
2299,0.009082303
2300,-0.007745214
2301,0.014291037
2302,-0.003082939
2303,0.000256466
2304,0.007356972
2305,0.019828764
2306,-0.008035848
2307,0.016904192
2308,-0.003334019
2309,0.024444663
2310,-0.029940659
2311,-0.005621508
2312,-0.002069079
2313,0.024566379
2314,-0.014928726
2315,0.006882069
2316,0.002109946
2317,-0.00766646
2318,-0.02189217
2319,-0.012464303
2320,0.000104899
2321,0.028960007
2322,0.012520172
2323,-0.017400484
2324,0.002536792
2325,0.013027684
2326,-0.001691867
2327,-0.013868812
2328,-0.01098537
2329,-0.01078834
2330,-0.015664978
2331,0.012844486
2332,0.020286814
2333,-0.00184889
2334,-0.007989859
2335,0.008415879
2336,-0.011912364
2337,0.000635759
2338,-0.003588251
2339,0.000622962
2340,0.01172307
2341,0.002376174
2342,0.024341681
2343,-0.004239844
2344,0.002094518
2345,-0.009987297
2346,-0.009924927
2347,0.014552956
2348,0.005448214
2349,-0.001719704
2350,0.042576326
2351,-0.013744087
2352,0.016956858
2353,-0.000686669
2354,0.001396889
2355,0.023818758
2356,-0.010597669
2357,-0.004876617
2358,0.011051769
2359,0.028176366
2360,-0.012036317
2361,0.007684549
2362,0.002126952
2363,-0.008995846
2364,0.01838225
2365,0.020650861
2366,0.013613762
2367,-0.010422382
2368,0.020015233
2369,-0.00020067
2370,-0.019384508
2371,-0.018641642
2372,0.000523953
2373,-0.011499442
2374,0.012986816
2375,-0.018938495
2376,0.016662159
2377,-0.011705525
2378,-0.022955271
2379,0.007221366
2380,0.025504489
2381,0.003977764
2382,-0.002586837
2383,-0.015869654
2384,-0.003133689
2385,0.03939901
2386,0.009655867
2387,0.009139643
2388,-0.006899061
2389,-0.008935852
2390,-0.00391224
2391,0.007764995
2392,0.000883041
2393,0.00940302
2394,-0.052801255
2395,-0.027476081
2396,0.010736534
2397,-0.00794924
2398,0.001281606
2399,0.006282705
2400,0.026310392
2401,-0.006048156
2402,-0.005697656
2403,-0.012685748
2404,-0.018051439
2405,-0.012886854
2406,0.010181908
2407,0.002959009
2408,0.018674429
2409,-0.011707202
2410,0.018817005
2411,0.006157043
2412,-0.015036298
2413,-0.000451675
2414,0.015591953
2415,0.009915948
2416,0.017730698
2417,-0.021852959
2418,-0.003105347
2419,0.023330495
2420,-0.004626197
2421,-9.66E-05
2422,-0.001082769
2423,-0.006422842
2424,0.002911275
2425,0.027357215
2426,-0.013627609
2427,-0.008337549
2428,0.001161253
2429,0.016346349
2430,0.004589629
2431,0.003128925
2432,0.026972036
2433,0.016911924
2434,-0.008690519
2435,-0.004495609
2436,0.007925336
2437,-0.005466224
2438,-0.016510252
2439,0.008249855
2440,-0.009829917
2441,0.000546207
2442,0.00104868
2443,0.011703015
2444,0.007311428
2445,-0.01576087
2446,0.005919083
2447,0.003687823
2448,-0.022540703
2449,0.009321206
2450,0.010295784
2451,-0.010510503
2452,0.014027723
2453,-0.002028161
2454,0.006570726
2455,0.001988541
2456,0.011025393
2457,0.01593694
2458,-0.009838724
2459,0.000811268
2460,-0.022028758
2461,-0.002768533
2462,-0.000718252
2463,-0.000484247
2464,-0.00034401
2465,0.008316589
2466,-0.019421808
2467,0.012887938
2468,0.011958782
2469,-0.02411574
2470,0.02027749
2471,0.005810107
2472,0.003819505
2473,-0.001557594
2474,-0.019474681
2475,0.00169597
2476,0.010711561
2477,-0.004405961
2478,-0.002464144
2479,0.008796374
2480,0.005612559
2481,0.010828985
2482,0.025029863
2483,-0.017866751
2484,-0.016179616
2485,0.017926359
2486,0.006886463
2487,0.009151082
2488,0.013734305
2489,0.018237822
2490,-0.007759177
2491,0.030242796
2492,-0.00713528
2493,-0.000117982
2494,-0.011592653
2495,0.007886766
2496,-0.027402987
2497,0.004683662
2498,0.005744854
2499,-0.011149628
2500,-0.019432477
2501,-0.022491239
2502,-7.42E-05
2503,0.00202761
2504,-0.021078479
2505,-0.008701402
2506,-0.005088499
2507,-0.020040281
2508,0.010267205
2509,0.007821884
2510,-0.022841538
2511,-0.018399375
2512,-0.014562122
2513,0.007534009
2514,-0.008935462
2515,-0.029374538
2516,0.018323803
2517,0.001566779
2518,-0.013699947
2519,-0.009208247
2520,-0.018142761
2521,0.015440876
2522,0.010876609
2523,0.021546513
2524,0.005008917
2525,0.020329402
2526,0.004063966
2527,-0.001677909
2528,0.008495689
2529,-0.022551535
2530,-0.002190348
2531,0.011805351
2532,-0.007404388
2533,0.011653329
2534,0.002516973
2535,-0.017625528
2536,0.000676293
2537,-0.001610689
2538,-0.01199488
2539,-0.000642213
2540,-0.005267263
2541,-0.016672019
2542,-0.013587744
2543,-0.007709009
2544,0.004528131
2545,0.018175759
2546,0.011819034
2547,-0.007932383
2548,-0.026350057
2549,-0.029345175
2550,-0.003850855
2551,0.005432071
2552,-0.007457581
2553,0.008588958
2554,0.00467902
2555,0.007958169
2556,0.007332779
2557,-0.015992626
2558,0.01006518
2559,0.011988912
2560,0.000573256
2561,0.013068637
2562,0.006801892
2563,0.010206591
2564,0.01033366
2565,-0.000793262
2566,0.011189413
2567,0.011131736
2568,0.008537956
2569,0.018615458
2570,0.004222732
2571,-0.000567323
2572,-0.001851854
2573,0.013100658
2574,0.03124383
2575,0.006635864
2576,0.022108585
2577,-0.001986379
2578,0.000920361
2579,-0.021170064
2580,0.023820447
2581,-0.023759976
2582,-0.01427181
2583,-0.025702799
2584,0.01261445
2585,-0.00440894
2586,0.004160606
2587,0.004335309
2588,-0.013020918
2589,0.003341358
2590,-0.025823349
2591,0.009841094
2592,-0.005029791
2593,0.003637025
2594,-0.026432353
2595,0.016096318
2596,0.01343088
2597,-0.032000804
2598,-0.015816765
2599,0.019389121
2600,0.011312894
2601,0.010168754
2602,0.033929917
2603,0.022321998
2604,-0.013929661
2605,0.029342565
2606,-0.006542445
2607,-0.006524554
2608,-0.030646092
2609,-0.008386953
2610,-0.010298234
2611,0.017412454
2612,-0.010089514
2613,0.025102258
2614,-0.001259415
2615,-0.024180405
2616,0.006429727
2617,0.005451721
2618,-0.009365358
2619,-0.015299025
2620,-0.014276677
2621,0.00711989
2622,0.025166153
2623,-0.00664024
2624,-0.000190554
2625,0.016595302
2626,0.020916191
2627,-0.014856013
2628,-0.004954805
2629,0.00652773
2630,-0.00952471
2631,-0.001436471
2632,0.00182861
2633,0.020783135
2634,-0.016101226
2635,-0.000630818
2636,0.021338235
2637,-0.007717807
2638,0.025405381
2639,0.010670851
2640,0.002577267
2641,0.025555596
2642,0.02081845
2643,0.004825494
2644,-0.004289953
2645,0.009780136
2646,-0.018077259
2647,0.023198464
2648,0.007949279
2649,-0.009822301
2650,-0.011237532
2651,-0.014527632
2652,0.008168811
2653,-0.002374566
2654,0.004180008
2655,-0.017512763
2656,0.029751256
2657,-0.004406645
2658,-0.027508721
2659,-0.008686729
2660,0.02280156
2661,0.001849728
2662,0.005338115
2663,0.002443581
2664,0.001941384
2665,-0.027286244
2666,-0.009167433
2667,-0.01531621
2668,0.01403048
2669,0.00170637
2670,0.018068645
2671,0.00848934
2672,0.016198068
2673,-0.003432569
2674,0.026737612
2675,-0.034769917
2676,0.032494583
2677,0.040338703
2678,-0.004910036
2679,-0.003023494
2680,-0.002751011
2681,0.015759047
2682,-0.00317741
2683,0.006069548
2684,-0.005339315
2685,0.028908091
2686,-0.002682235
2687,0.03774907
2688,-0.003523236
2689,-0.002385419
2690,-0.001170307
2691,0.021819377
2692,0.002558096
2693,-0.00683448
2694,0.02092867
2695,0.01273781
2696,-0.003851454
2697,0.006821614
2698,-0.025349565
2699,-0.005458256
2700,0.001011739
2701,-0.002806603
2702,0.009475173
2703,-0.017633977
2704,-0.019595195
2705,5.09E-05
2706,-0.00811656
2707,-0.003999848
2708,0.032442519
2709,0.006233126
2710,-0.023435396
2711,-0.007827374
2712,-0.001227045
2713,0.008670816
2714,0.006209876
2715,0.017713441
2716,-0.000745979
2717,-0.003035949
2718,0.013136541
2719,-0.006497158
2720,-0.009089208
2721,0.002933625
2722,0.013612563
2723,0.015767245
2724,0.010311617
2725,-0.044077726
2726,0.032925935
2727,0.012834823
2728,0.041352696
2729,-0.007463249
2730,0.011185977
2731,0.014699462
2732,-0.022587837
2733,0.00635654
2734,0.003105853
2735,0.011140059
2736,-0.023959044
2737,-0.027211121
2738,0.000635655
2739,-0.010177022
2740,0.00308946
2741,-0.018978568
2742,0.009642952
2743,-0.003534585
2744,-0.005357117
2745,0.012436106
2746,-0.000807813
2747,0.020300164
2748,-0.003906694
2749,0.025359144
2750,-0.01840355
2751,0.020085306
2752,0.00728891
2753,0.019937356
2754,-0.008591707
2755,0.009531293
2756,-0.005832164
2757,0.010442573
2758,0.016166592
2759,0.021939112
2760,-0.028576269
2761,-0.024535463
2762,0.002280795
2763,0.018485983
2764,-0.032125062
2765,0.000348899
2766,0.031195436
2767,0.004305935
2768,-0.012606799
2769,-0.005144413
2770,0.006496973
2771,0.02148806
2772,-0.015000699
2773,-0.016665855
2774,-0.006774191
2775,0.00972338
2776,-0.000997658
2777,0.012516622
2778,-0.011950552
2779,0.00344711
2780,0.01769947
2781,-0.004420911
2782,-0.013844469
2783,0.028316006
2784,-0.000909713
2785,0.002336712
2786,-0.018718933
2787,-0.026629859
2788,0.025129522
2789,-0.00907736
2790,-0.016919296
2791,0.015113408
2792,-0.02093834
2793,-0.006736097
2794,-0.016379366
2795,-0.014787893
2796,-0.001344904
2797,-0.023112501
2798,-0.024836546
2799,-0.005984039
2800,-0.006045224
2801,-0.008547927
2802,0.003951788
2803,-0.020221767
2804,0.016139468
2805,-0.020726012
2806,0.007024574
2807,-0.015481004
2808,-0.014886092
2809,-0.012175321
2810,0.004053879
2811,-0.009270325
2812,0.00849602
2813,0.013529422
2814,-0.005364766
2815,0.038940944
2816,-0.003130617
2817,-0.006873041
2818,0.013661391
2819,-0.007203129
2820,0.017043557
2821,0.033776771
2822,-0.019812312
2823,0.011595558
2824,0.004437194
2825,-0.017065069
2826,0.005874192
2827,0.013652186
2828,-0.009182296
2829,-0.007083783
2830,-0.007818441
2831,0.017712898
2832,0.009637738
2833,-0.005608156
2834,-0.012844107
2835,-0.019809588
2836,0.016528339
2837,0.008995559
2838,-0.018791007
2839,-1.03E-06
2840,0.008804394
2841,-0.023741513
2842,0.000812807
2843,0.015640915
2844,-0.002275454
2845,-0.002922212
2846,0.025557735
2847,0.00903303
2848,-6.15E-05
2849,0.002556121
2850,0.013488869
2851,-0.020955065
2852,0.009770402
2853,-0.000432528
2854,-0.022947209
2855,0.006192027
2856,0.040053026
2857,0.00029929
2858,0.0157401
2859,0.016900261
2860,-0.018570974
2861,0.008864464
2862,-0.009861373
2863,0.022253804
2864,-0.003182497
2865,-0.031996322
2866,0.023139777
2867,-0.01043686
2868,-0.005196564
2869,-0.004243097
2870,-0.00629876
2871,0.009320184
2872,-0.044663518
2873,0.002227688
2874,0.011506236
2875,-0.001914269
2876,0.002245454
2877,-0.005692535
2878,-0.012780137
2879,0.010621559
2880,0.008267556
2881,0.002472868
2882,0.018539241
2883,-0.008041554
2884,0.017231
2885,-0.007156695
2886,0.008707014
2887,0.000155304
2888,5.06E-05
2889,0.015219707
2890,-0.028403974
2891,0.00937689
2892,0.016635942
2893,-0.00202322
2894,-0.005029463
2895,0.005362917
2896,-0.042503761
2897,-0.002980286
2898,0.009433515
2899,-0.002549675
2900,-0.005234494
2901,-0.011444309
2902,-0.005770716
2903,-0.005682477
2904,0.002727741
2905,0.019051501
2906,0.008436579
2907,0.009111625
2908,0.006404589
2909,0.000416615
2910,-0.000372354
2911,0.01279509
2912,0.005014573
2913,-0.020617331
2914,-0.005000552
2915,-0.004935445
2916,-0.013819101
2917,0.006455528
2918,-0.005612346
2919,0.010446421
2920,-0.02121153
2921,0.023454028
2922,0.003200341
2923,-0.000493164
2924,-0.031796662
2925,0.035945982
2926,0.0163543
2927,-0.019957974
2928,-0.00864799
2929,0.023482392
2930,-0.002788793
2931,0.0257231
2932,-0.021416615
2933,0.015605329
2934,-0.008833886
2935,0.000142173
2936,-0.009437902
2937,8.52E-05
2938,-0.015519367
2939,-0.007150987
2940,-0.003310533
2941,-0.011979684
2942,0.004469432
2943,-0.005233856
2944,0.013618016
2945,0.002819197
2946,-0.009460486
2947,-0.005746518
2948,0.011896346
2949,0.00417924
2950,0.020040174
2951,-0.002115703
2952,-0.012211273
2953,0.003813979
2954,0.02350343
2955,0.0059894
2956,0.025358761
2957,0.021860275
2958,-0.008778139
2959,0.011693308
2960,0.00056138
2961,-0.003403035
2962,-0.004086227
2963,-0.017937452
2964,-0.005103084
2965,-0.043139272
2966,0.010510194
2967,-0.025614269
2968,0.011303431
2969,0.016624226
2970,0.00376348
2971,-0.00521729
2972,0.000749818
2973,-0.003107169
2974,0.007219821
2975,0.008681066
2976,0.007982746
2977,0.028964466
2978,-0.003956896
2979,-0.01827596
2980,0.00480143
2981,0.011299477
2982,-0.012231105
2983,0.00828903
2984,-0.001331496
2985,-0.001497378
2986,-0.009427546
2987,0.013569004
2988,0.009586734
2989,0.015451957
2990,-0.013651543
2991,-0.019109582
2992,0.0106572
2993,0.015696453
2994,0.011943099
2995,-0.007734455
2996,-0.005062776
2997,0.00573077
2998,-0.003206659
2999,-0.008678512
3000,-0.013946654
3001,0.004499929
3002,0.011823608
3003,0.015044177
3004,-0.013981341
3005,-0.014390471
3006,-0.000361429
3007,0.001668487
3008,-0.009379548
3009,0.006155832
3010,-0.016987002
3011,-0.022588491
3012,-0.019777866
3013,-0.005945272
3014,0.003437949
3015,-0.000567927
3016,0.003660076
3017,0.003916491
3018,0.003982595
3019,-0.026445881
3020,0.006582931
3021,0.01485351
3022,-0.032164156
3023,-0.020468503
3024,0.015119572
3025,-0.000886585
3026,-0.008869623
3027,0.004314002
3028,-0.013916199
3029,0.0112711
3030,0.008454459
3031,0.008510257
3032,0.016980404
3033,0.024266858
3034,0.015921056
3035,0.039233307
3036,-0.010400995
3037,-0.011815108
3038,0.009942158
3039,0.015685697
3040,0.00171888
3041,0.034658279
3042,0.005938434
3043,-0.006352575
3044,0.005704349
3045,0.031924722
3046,-0.004361564
3047,-0.0279293
3048,-0.010280408
3049,0.004434272
3050,-0.00471774
3051,0.003821885
3052,0.011149485
3053,-0.021156704
3054,0.006154887
3055,-0.010241462
3056,-0.021982863
3057,-0.019288338
3058,0.015748332
3059,0.007300856
3060,-0.02376539
3061,-0.033128547
3062,0.005337265
3063,-0.003774133
3064,0.022218317
3065,-0.004267996
3066,0.001763485
3067,0.000985763
3068,-0.010170475
3069,-0.013789212
3070,-0.006582029
3071,0.005679264
3072,0.0006821
3073,0.007620485
3074,-0.003528491
3075,-0.021440883
3076,0.006588729
3077,0.005603821
3078,-0.007300395
3079,0.029631961
3080,-0.003690548
3081,0.01377353
3082,0.012313121
3083,-0.009114572
3084,0.015036137
3085,-0.033034698
3086,-0.017432219
3087,0.001791044
3088,0.002801409
3089,-0.001091605
3090,0.007279635
3091,-0.008952702
3092,-0.004193197
3093,-0.019799909
3094,0.009025101
3095,0.002404367
3096,-0.006646367
3097,0.025166363
3098,0.022337975
3099,0.001870944
3100,0.016795528
3101,-0.004358179
3102,0.017696487
3103,0.004245839
3104,-0.008191314
3105,-0.03231629
3106,0.016672671
3107,0.005629199
3108,-0.022081864
3109,-0.003976003
3110,-0.013841989
3111,-0.000415043
3112,0.00549607
3113,0.002224424
3114,-0.004631648
3115,0.013669973
3116,0.010068568
3117,0.006867745
3118,-0.030215592
3119,-0.002800148
3120,-0.026661298
3121,-0.007498277
3122,0.023429378
3123,-0.031164479
3124,0.000665734
3125,-0.011762854
3126,0.003645814
3127,0.011249649
3128,-0.013227722
3129,0.006294562
3130,0.014332822
3131,0.007903919
3132,-0.018604279
3133,0.015605742
3134,-0.033887201
3135,0.001221806
3136,0.000819039
3137,-0.000383077
3138,-0.013962938
3139,-0.015086617
3140,0.013223778
3141,0.033591526
3142,-0.002589882
3143,0.009433286
3144,-0.015313608
3145,-0.017917367
3146,-0.01145946
3147,0.004531615
3148,0.011834499
3149,-0.011339876
3150,-0.02546381
3151,-0.005897231
3152,0.002636724
3153,-0.019835585
3154,0.000989998
3155,0.000854524
3156,-0.006125243
3157,0.01891747
3158,-0.007349434
3159,0.018348921
3160,-0.006263822
3161,-0.002456555
3162,-0.006137024
3163,0.015244771
3164,-0.001009817
3165,-0.003837458
3166,-0.012737236
3167,0.012432447
3168,0.022194449
3169,-0.002543927
3170,-0.000419846
3171,-0.009292778
3172,-0.02758683
3173,0.026508145
3174,0.004040476
3175,-0.005665368
3176,0.019879259
3177,0.019831094
3178,-0.016525594
3179,-0.002098102
3180,0.004124777
3181,-0.012189032
3182,0.000481583
3183,-0.001588646
3184,-0.019537082
3185,0.01666961
3186,-0.019147984
3187,-0.011936534
3188,0.014686428
3189,0.001824865
3190,0.001323187
3191,0.005702628
3192,-0.001810285
3193,-0.019152965
3194,-0.01369489
3195,-0.00702201
3196,0.016778856
3197,-0.018612312
3198,0.003421634
3199,0.003397349
3200,0.004090045
3201,0.001066365
3202,-0.014002516
3203,0.00098637
3204,-0.010790317
3205,-0.027231339
3206,-0.009982855
3207,-0.010869221
3208,-0.006846725
3209,0.011316841
3210,-0.009103412
3211,0.009965119
3212,0.009552855
3213,-0.006804438
3214,0.009891253
3215,-0.009893425
3216,0.009812061
3217,-0.008391535
3218,0.01877233
3219,0.032819861
3220,0.002335417
3221,-0.007193976
3222,-0.001179539
3223,-0.007493701
3224,-0.013397497
3225,-0.005943852
3226,0.010429119
3227,-0.008282956
3228,0.018785139
3229,-0.008374982
3230,-0.008980161
3231,0.011505682
3232,0.023218342
3233,0.014764814
3234,-0.00599063
3235,0.019811224
3236,-0.014778339
3237,-0.00071782
3238,0.001808207
3239,0.004511678
3240,0.006908722
3241,-0.011137802
3242,-0.000215543
3243,0.008340707
3244,-0.017754223
3245,0.008616204
3246,0.002629034
3247,0.002329594
3248,-0.023902446
3249,0.008888345
3250,0.003196001
3251,-0.012872743
3252,0.008598023
3253,0.017655464
3254,-0.004517898
3255,-0.010093517
3256,-0.019080487
3257,0.004635585
3258,-0.01309874
3259,0.01687328
3260,-0.001164526
3261,-0.001141319
3262,-0.022198082
3263,0.020817333
3264,-0.010143989
3265,0.000662247
3266,-0.00121216
3267,-0.017396724
3268,0.006546538
3269,0.010486252
3270,0.011733156
3271,-0.004257907
3272,-0.009860286
3273,-0.025550662
3274,-0.018314489
3275,-0.01520708
3276,-0.013454718
3277,0.014730551
3278,0.011425306
3279,0.012506554
3280,-0.000603081
3281,0.021054614
3282,0.033041497
3283,0.000899276
3284,-0.013927202
3285,-0.004917295
3286,0.004437354
3287,-0.00434014
3288,-0.012666671
3289,0.01145632
3290,-0.007325354
3291,-0.001991146
3292,0.011231442
3293,0.019590253
3294,0.003306414
3295,0.021735884
3296,0.020555816
3297,-0.008117279
3298,0.008273395
3299,0.003011932
3300,-0.011085022
3301,-0.011172592
3302,0.018652297
3303,0.005608467
3304,-0.007856857
3305,-0.00661179
3306,0.011374575
3307,0.00882468
3308,0.018532175
3309,0.017793653
3310,-0.016018304
3311,-0.008599901
3312,-0.007369003
3313,-0.005294403
3314,0.013000929
3315,0.013977483
3316,-0.006170963
3317,0.015581793
3318,0.016026468
3319,0.027135197
3320,-0.01308244
3321,-0.007601809
3322,0.009261877
3323,0.015913711
3324,0.014107952
3325,-0.019518109
3326,0.004229186
3327,0.008202704
3328,0.016534579
3329,0.003866352
3330,-0.005368021
3331,0.011122234
3332,-0.040587259
3333,0.001523395
3334,0.003881075
3335,-0.025663851
3336,-0.025799524
3337,0.017365765
3338,0.003828236
3339,-0.002379968
3340,0.01636698
3341,0.006253637
3342,-0.000255013
3343,0.002093857
3344,0.022998638
3345,-0.013489309
3346,-0.009046642
3347,-0.029806666
3348,0.012745755
3349,0.006482957
3350,0.00088609
3351,-0.010022732
3352,0.004292784
3353,0.038653277
3354,-0.001272243
3355,0.020993146
3356,-0.011639555
3357,-0.025004183
3358,0.012451135
3359,0.000161437
3360,-0.005246064
3361,-0.005272451
3362,-0.011298236
3363,-0.01454887
3364,0.021737023
3365,0.001111108
3366,-0.018120356
3367,-0.041640101
3368,-0.020183026
3369,-0.004886578
3370,-0.010148895
3371,-0.028549226
3372,0.002604196
3373,0.00319377
3374,0.026490758
3375,0.002639413
3376,-0.006531653
3377,0.000304575
3378,0.011857215
3379,-0.005097845
3380,-0.014827383
3381,-0.02977404
3382,-0.00536597
3383,-0.01322665
3384,0.006739391
3385,-0.001923314
3386,-0.018929788
3387,0.012223938
3388,-0.022376245
3389,0.013352108
3390,0.024416749
3391,0.030772863
3392,-0.010622671
3393,0.033406929
3394,0.004985531
3395,-0.001926388
3396,-0.010809041
3397,-0.001303077
3398,0.012749334
3399,-0.001278674
3400,0.015521005
3401,0.017821566
3402,-0.010566289
3403,-0.01535928
3404,0.006485018
3405,0.003351973
3406,-0.019286097
3407,0.001672678
3408,0.00409309
3409,0.000373564
3410,-0.008207713
3411,-0.015186832
3412,0.014870394
3413,-0.00702781
3414,-0.001795419
3415,0.025584711
3416,-0.025517828
3417,0.008814844
3418,-0.00953974
3419,0.005029541
3420,0.013025753
3421,-0.006482505
3422,-0.010915033
3423,-0.017281587
3424,-0.014081838
3425,0.006023392
3426,0.005886936
3427,-0.006067121
3428,0.010514084
3429,-0.000694736
3430,0.004325185
3431,-0.010189848
3432,-0.005345739
3433,-0.010486608
3434,0.008592241
3435,-0.010433225
3436,0.005396925
3437,0.030117717
3438,-0.008591167
3439,-0.004702522
3440,0.008723845
3441,0.015943174
3442,0.007906047
3443,-0.027252247
3444,0.024366493
3445,0.002048711
3446,0.022785661
3447,-0.005233041
3448,-0.017112675
3449,-0.011352113
3450,0.009475727
3451,-0.018971063
3452,0.014815698
3453,0.023897137
3454,-0.008625695
3455,0.015191064
3456,-0.0085917
3457,-0.004618506
3458,-0.005901118
3459,-0.021667488
3460,-0.011992239
3461,0.012303618
3462,0.030041825
3463,-0.007529771
3464,-0.001275338
3465,-0.001689576
3466,0.010637617
3467,0.004883364
3468,-0.011564109
3469,-0.008644963
3470,-0.008403562
3471,-0.016977272
3472,-0.010233843
3473,0.005803013
3474,0.001438099
3475,-0.014230529
3476,-0.00183047
3477,-0.012654722
3478,-0.006281939
3479,-0.014535893
3480,-0.019619637
3481,-0.014288939
3482,-0.01220338
3483,-0.025945
3484,-0.011590509
3485,-0.004330895
3486,0.021014993
3487,-0.008687088
3488,-0.015266889
3489,-0.021080293
3490,-0.014562805
3491,0.013146346
3492,-0.008522624
3493,-0.014137782
3494,-0.002186867
3495,-0.011848084
3496,0.007159344
3497,-0.019241242
3498,-0.017377472
3499,0.014357279
3500,-0.025905004
3501,0.016606661
3502,-0.015434195
3503,0.006245532
3504,0.003970819
3505,0.024318628
3506,-0.028994735
3507,-0.019774961
3508,-3.28E-05
3509,-0.014405477
3510,-0.027148281
3511,0.010825341
3512,0.009688682
3513,0.005774684
3514,0.006352357
3515,-0.006921256
3516,0.000577382
3517,-0.000857543
3518,-0.009619136
3519,0.002894537
3520,-0.010389083
3521,-0.019731337
3522,-0.007093361
3523,-0.001784299
3524,0.010504649
3525,0.001667003
3526,-0.014369904
3527,-0.008108686
3528,0.015109537
3529,-0.010699298
3530,-0.023509652
3531,0.012313231
3532,0.005994115
3533,0.033303869
3534,1.88E-05
3535,-0.010365283
3536,0.034849662
3537,-0.024257872
3538,0.00658349
3539,0.001461412
3540,0.011477745
3541,0.006672679
3542,0.01751266
3543,-0.007943645
3544,-0.024301528
3545,0.005390344
3546,-0.019487945
3547,0.005488737
3548,-0.005657776
3549,-0.014078257
3550,0.009629435
3551,0.014853587
3552,-0.005996269
3553,-0.001715913
3554,0.021339534
3555,0.031180983
3556,-0.003326666
3557,0.017474083
3558,-0.000433767
3559,-0.001926672
3560,0.002839732
3561,-0.011225767
3562,-0.027723012
3563,-0.015624884
3564,-0.021314207
3565,-0.008337173
3566,0.015390114
3567,0.002734551
3568,0.027048701
3569,-0.002144092
3570,0.013157653
3571,0.00040883
3572,0.000245171
3573,-0.021887209
3574,-0.004881063
3575,0.008105117
3576,-0.003241352
3577,0.013712214
3578,0.000148205
3579,0.01650313
3580,-0.009795737
3581,0.01033777
3582,0.004084039
3583,-0.008818443
3584,0.002272319
3585,-0.024271372
3586,0.027939018
3587,-0.007371516
3588,-0.023700825
3589,-0.006829716
3590,0.010658097
3591,-0.024554769
3592,0.022575816
3593,-0.008137343
3594,-0.002378531
3595,-0.010100961
3596,0.019090241
3597,-0.006872934
3598,0.022681773
3599,-0.014794509
3600,0.004447047
3601,-0.007566852
3602,-0.007148894
3603,-0.008306941
3604,-0.022010463
3605,-0.0019128
3606,0.004195312
3607,0.010134617
3608,0.009550032
3609,-0.008064758
3610,0.008767724
3611,-0.021663306
3612,0.011199109
3613,-0.007615829
3614,-0.008103173
3615,-0.022423205
3616,-0.013358012
3617,0.002431817
3618,0.003575648
3619,-0.01692145
3620,-0.017235875
3621,-0.012688906
3622,0.023060972
3623,-0.008099626
3624,0.006936126
3625,0.011386121
3626,0.020836637
3627,-0.003394744
3628,-0.004154166
3629,-0.012266964
3630,-0.012770463
3631,0.000743224
3632,0.002597593
3633,-0.019907097
3634,0.017453419
3635,0.017387501
3636,-0.000552306
3637,-0.004720009
3638,0.016534981
3639,0.020203893
3640,-0.031323191
3641,0.024383305
3642,-0.00353447
3643,0.011738756
3644,-0.031107422
3645,-0.006301931
3646,0.008222405
3647,-0.004815524
3648,0.00455678
3649,-0.015676584
3650,-0.000340312
3651,-0.027290911
3652,-0.024431736
3653,-0.003407257
3654,0.002236523
3655,0.018273724
3656,0.013120384
3657,0.014684589
3658,-0.008009887
3659,-0.017391791
3660,-0.009022616
3661,-0.008200891
3662,0.004452339
3663,-0.012278052
3664,-0.030052907
3665,0.008036458
3666,0.016965166
3667,-0.02079181
3668,-0.02246982
3669,-0.009289642
3670,-0.024645941
3671,0.012383054
3672,-0.014023794
3673,-0.015680897
3674,-0.007296518
3675,0.005619836
3676,-0.018691141
3677,-0.008777703
3678,-0.006256221
3679,0.003325776
3680,-0.017480273
3681,-2.54E-05
3682,-0.002532287
3683,-0.00088928
3684,0.027761663
3685,0.011484532
3686,-0.03370178
3687,0.016672979
3688,0.024657526
3689,-0.003582017
3690,-0.002020482
3691,-0.021950342
3692,0.029042962
3693,0.008754606
3694,-0.011209104
3695,0.000738302
3696,-0.002415975
3697,0.002302815
3698,-3.97E-05
3699,0.0061764
3700,0.009273438
3701,-0.009530384
3702,-0.021145923
3703,0.000468696
3704,-0.011888799
3705,0.018284768
3706,-0.031936631
3707,-0.010214717
3708,-0.021338181
3709,0.018049359
3710,-0.00137673
3711,-0.010545502
3712,-0.002090183
3713,0.001242489
3714,-0.00515606
3715,0.005330108
3716,-0.004863774
3717,0.00341522
3718,-0.022258675
3719,-0.005885733
3720,0.009855076
3721,-0.006710366
3722,0.008636521
3723,0.019286049
3724,-0.013839912
3725,-0.011833018
3726,0.002103435
3727,-0.004524563
3728,0.006630725
3729,-0.003565439
3730,-0.011283609
3731,-0.00304332
3732,-0.005402973
3733,-0.000390354
3734,0.000993571
3735,0.00152843
3736,-0.005673063
3737,-0.011969912
3738,-0.012095077
3739,0.000582238
3740,-0.004615682
3741,-0.019255673
3742,-0.01318342
3743,0.005717069
3744,-0.017323865
3745,0.011072922
3746,-0.017069138
3747,0.014112263
3748,0.013314604
3749,0.005102005
3750,-0.004816587
3751,0.01774471
3752,-0.007631772
3753,0.024009013
3754,-0.016020727
3755,0.01249987
3756,0.007681765
3757,-0.02045101
3758,0.012336141
3759,0.03768432
3760,0.000521964
3761,-0.029226275
3762,-0.020528639
3763,-0.011828567
3764,-0.018827341
3765,-0.008354769
3766,-0.024152083
3767,0.001196284
3768,0.007248494
3769,-0.02031458
3770,0.008916844
3771,0.023219561
3772,-0.023888301
3773,-0.016894452
3774,-0.019616838
3775,-0.001740189
3776,-0.015093565
3777,-0.013663092
3778,0.024436469
3779,0.003884988
3780,0.003540367
3781,-0.009020781
3782,0.014099874
3783,0.005236553
3784,0.009641896
3785,0.002948452
3786,-0.010650252
3787,-2.76E-05
3788,0.011850108
3789,-0.024309326
3790,-0.012873744
3791,0.00558413
3792,0.018825982
3793,-0.001072121
3794,0.01930902
3795,-0.017751617
3796,-0.022446691
3797,-0.023288139
3798,-0.017010258
3799,-0.020158988
3800,-0.014358949
3801,-0.000908058
3802,-0.003300995
3803,-0.008923092
3804,-0.001711171
3805,0.016362882
3806,0.009763637
3807,-0.000739216
3808,-0.025999208
3809,-0.000295003
3810,6.80E-05
3811,0.026504739
3812,-0.000431816
3813,0.024789857
3814,-0.017647226
3815,-0.02953047
3816,0.000119158
3817,0.002903308
3818,-0.016972562
3819,-0.001270843
3820,-0.021346099
3821,0.002401418
3822,-0.012528082
3823,0.002826642
3824,-0.020587672
3825,0.015369658
3826,0.007089967
3827,0.003005616
3828,0.031920423
3829,-0.01209333
3830,0.005066025
3831,-0.010770639
3832,-0.013079928
3833,0.008588556
3834,-0.013717132
3835,0.030634922
3836,0.025898347
3837,0.011321017
3838,-0.009859794
3839,0.008711203
3840,0.014143214
3841,0.027679339
3842,-0.026323138
3843,0.010943469
3844,0.010690121
3845,0.005512276
3846,0.007787364
3847,0.010220006
3848,0.012697131
3849,-0.009235826
3850,-0.001669997
3851,0.002903672
3852,-0.012043327
3853,0.018881786
3854,-0.009614901
3855,0.013813297
3856,0.015521026
3857,-0.007662826
3858,0.004964866
3859,0.001477313
3860,-0.000383
3861,0.001770358
3862,0.014311754
3863,-0.004078711
3864,0.002626229
3865,0.020967579
3866,-0.019890374
3867,-0.010077326
3868,-0.017381008
3869,-0.016266501
3870,-0.016558995
3871,-0.018729455
3872,-0.030485974
3873,0.00806464
3874,0.020038868
3875,-0.026101284
3876,0.009644911
3877,0.001827005
3878,-0.020990897
3879,0.017217989
3880,-0.036804153
3881,0.017709558
3882,0.00261764
3883,-0.015693475
3884,0.011891095
3885,-0.008022778
3886,0.009174092
3887,0.019709568
3888,-0.031691232
3889,0.03154836
3890,-0.009376475
3891,-0.012815186
3892,-0.009098039
3893,0.001329782
3894,-0.022986034
3895,-0.012806764
3896,-0.009285963
3897,0.012611856
3898,-0.020775383
3899,-0.011230814
3900,0.00021018
3901,-0.002873048
3902,-0.014916649
3903,-0.004075927
3904,0.000374131
3905,-0.006771864
3906,-0.020433503
3907,0.001504046
3908,-0.000524571
3909,0.016514184
3910,-0.007272524
3911,0.007450502
3912,-0.001949737
3913,-0.015928265
3914,-0.015373649
3915,-0.012535314
3916,-0.004000641
3917,0.003002394
3918,-0.024575822
3919,-0.021853247
3920,-0.004252183
3921,-0.007062534
3922,-0.031151472
3923,-0.025904622
3924,0.008279942
3925,0.024774678
3926,-0.001774896
3927,0.001408705
3928,-0.012107688
3929,-0.017169842
3930,0.013331533
3931,-0.017756045
3932,-0.03324863
3933,-0.002889995
3934,-3.88E-05
3935,0.027412697
3936,-0.020926861
3937,-0.010047587
3938,-0.020917657
3939,0.010867661
3940,-0.013954369
3941,0.018337015
3942,0.023008024
3943,-0.008225815
3944,-0.009997671
3945,-0.001422675
3946,0.008450036
3947,-0.00463668
3948,0.012194564
3949,0.009573891
3950,0.028191405
3951,0.022868449
3952,-0.007712343
3953,-0.003248225
3954,0.008367467
3955,-0.001194101
3956,0.004778494
3957,0.008230595
3958,-0.005654285
3959,0.002492003
3960,-0.008063486
3961,-0.019178203
3962,0.00560813
3963,0.010801979
3964,0.012012359
3965,0.01173327
3966,-0.022415021
3967,-0.01259475
3968,-0.001694856
3969,0.008846043
3970,0.001235608
3971,-0.013087974
3972,0.020961232
3973,-0.003845248
3974,0.016863703
3975,-0.01467641
3976,-0.024024648
3977,-0.038124127
3978,-0.013267144
3979,-0.012881505
3980,-0.000373182
3981,-0.003126011
3982,-0.020500283
3983,0.010493104
3984,0.008448638
3985,-0.017677481
3986,0.039606121
3987,-0.021364318
3988,0.001424558
3989,0.007633382
3990,0.003964969
3991,0.011741974
3992,-0.004648316
3993,-0.008982303
3994,0.002509999
3995,0.020866799
3996,0.003762119
3997,-0.014719518
3998,0.006001139
3999,-0.001834122
4000,0.003525549
