Raman Shift,Intensity 
400,16.8709012
401,16.84150891
402,16.83182632
403,16.77882842
404,16.78653162
405,16.76796285
406,16.73622415
407,16.85294628
408,16.75565136
409,16.77557325
410,16.82756261
411,16.75628544
412,16.80364312
413,16.8100225
414,16.78536825
415,16.73887469
416,16.72595057
417,16.78481203
418,16.74321342
419,16.79157339
420,16.77561832
421,16.765127
422,16.88021732
423,16.88958868
424,16.85036552
425,16.84003605
426,16.6899599
427,16.74108069
428,16.78679548
429,16.84977226
430,16.80961742
431,16.81223851
432,16.8626775
433,16.85019658
434,16.70906424
435,16.83474431
436,16.75403176
437,16.8768104
438,16.77321597
439,16.90614883
440,16.85817793
441,16.85560338
442,16.79951864
443,16.90130075
444,16.76152673
445,16.73634985
446,16.75529088
447,16.80564849
448,16.87313033
449,16.82535804
450,16.85276342
451,16.72897726
452,16.78361291
453,16.80541432
454,16.74653948
455,16.88717902
456,16.82197716
457,16.74451072
458,16.7856957
459,16.86151891
460,16.65421271
461,16.7312157
462,16.81918229
463,16.71851684
464,16.79181951
465,16.78506839
466,16.8287143
467,16.86522842
468,16.77194262
469,16.78600704
470,16.77648906
471,16.91940919
472,16.7503836
473,16.82106249
474,16.72474495
475,16.83003061
476,16.85424966
477,16.81458352
478,16.75841618
479,16.73379632
480,16.85899649
481,16.85848543
482,16.78997918
483,16.8121781
484,16.86315924
485,16.79052636
486,16.85648488
487,16.83371169
488,16.74533027
489,16.80495794
490,16.74459906
491,16.81742282
492,16.79344256
493,16.9412746
494,16.84658701
495,16.82986457
496,16.83263907
497,16.77606863
498,16.85286423
499,16.79325075
500,16.82484981
501,16.73538996
502,16.84333944
503,16.76519446
504,16.92169213
505,16.85285161
506,16.87142063
507,16.78123764
508,16.74777316
509,16.79825438
510,16.85345435
511,16.82029509
512,16.75307212
513,16.81535821
514,16.77568526
515,16.71671179
516,16.75475474
517,16.72667922
518,16.73862482
519,16.764102
520,16.89728346
521,16.77511861
522,16.84160229
523,16.82302543
524,16.94071016
525,16.7916934
526,16.76707265
527,16.77135858
528,16.84204167
529,16.79951191
530,16.86339738
531,16.78416196
532,16.7163015
533,16.83229363
534,16.85910771
535,16.7610719
536,16.76128375
537,16.72015053
538,16.72118782
539,16.7940259
540,16.89100859
541,16.83946297
542,16.83928674
543,16.79448267
544,16.74300191
545,16.77284615
546,16.75122989
547,16.80246662
548,16.74131339
549,16.85109117
550,16.75601916
551,16.87923925
552,16.93126569
553,16.80381478
554,16.83379469
555,16.89556022
556,16.84827893
557,16.75266578
558,16.82908856
559,16.74711103
560,16.87268398
561,16.79490216
562,16.84517957
563,16.72103896
564,16.75972886
565,16.81719171
566,16.77361141
567,16.81359259
568,16.83585293
569,16.78121029
570,16.73430556
571,16.80107326
572,16.79537887
573,16.88867585
574,16.84773427
575,16.85002892
576,16.85194355
577,16.90112923
578,16.72089152
579,16.76375849
580,16.74165883
581,16.82332769
582,16.89390501
583,16.88130983
584,16.87720143
585,16.8436591
586,16.76177565
587,16.73796904
588,16.8368479
589,16.73663856
590,16.72352232
591,16.94597644
592,16.80411216
593,16.70445416
594,16.76272199
595,16.8191948
596,16.75630909
597,16.78973635
598,16.72755089
599,16.75851153
600,16.81247488
601,16.77777899
602,16.93206313
603,16.72546625
604,16.72088557
605,16.81223752
606,16.74424302
607,16.86566223
608,16.80477314
609,16.82664522
610,16.73069329
611,16.78265711
612,16.82618475
613,16.78099071
614,16.75354699
615,16.80006021
616,16.80400237
617,16.76646743
618,16.84398304
619,16.8782181
620,16.83574292
621,16.811978
622,16.73746934
623,16.81182668
624,16.79507173
625,16.82958246
626,16.80329492
627,16.82862403
628,16.91185682
629,16.90738841
630,16.76622634
631,16.71330759
632,16.87171506
633,16.8352601
634,16.93497178
635,16.91184311
636,16.92403124
637,16.74794878
638,16.77796915
639,16.77745575
640,16.86561053
641,16.84485101
642,16.77192936
643,16.91141271
644,16.75484314
645,16.78446296
646,16.85587972
647,16.81800303
648,16.67138132
649,16.77480828
650,16.77734298
651,16.81174912
652,16.89826943
653,16.76697353
654,16.78620316
655,16.78594465
656,16.7683279
657,16.79444616
658,16.73926606
659,16.69084058
660,16.741963
661,16.64250794
662,16.74073995
663,16.77100856
664,16.79409724
665,16.75417026
666,16.72724143
667,16.74272782
668,16.74084717
669,16.81685768
670,16.86994108
671,16.73387
672,16.7484753
673,16.7868264
674,16.8066013
675,16.709476
676,16.87689124
677,16.73003319
678,16.71745475
679,16.79185301
680,16.83752431
681,16.80074814
682,16.82413117
683,16.75041405
684,16.80594542
685,16.9209187
686,16.78315016
687,16.78061716
688,16.79380805
689,16.7983509
690,16.72558398
691,16.8714908
692,16.75846693
693,16.83115494
694,16.82383323
695,16.84095034
696,16.8238662
697,16.84102061
698,16.84728906
699,16.81514214
700,16.82841142
701,16.85097887
702,16.84528163
703,16.8215896
704,16.91516403
705,16.76194791
706,16.79366537
707,16.79268147
708,16.79461408
709,16.74566329
710,16.75697262
711,16.76036779
712,16.81267072
713,16.73908825
714,16.72159288
715,16.75630754
716,16.88828314
717,16.71252458
718,16.79542774
719,16.71436324
720,16.81338988
721,16.81193445
722,16.74605328
723,16.77382058
724,16.83558133
725,16.82550696
726,16.80788522
727,16.71748651
728,16.69146092
729,16.82601256
730,16.79692311
731,16.71323342
732,16.78815605
733,16.78799404
734,16.80557132
735,16.85573981
736,16.80196989
737,16.80096717
738,16.75359241
739,16.84140212
740,16.79931365
741,16.77935043
742,16.94363375
743,16.85027083
744,16.75619481
745,16.72797307
746,16.82958656
747,16.7671906
748,16.81139417
749,16.73631365
750,16.69513093
751,16.72330412
752,16.80963421
753,16.82190587
754,16.78433053
755,16.7863629
756,16.74515128
757,16.87124451
758,16.84303948
759,16.71197853
760,16.83356187
761,16.76727497
762,16.81744462
763,16.78363177
764,16.77562808
765,16.82067316
766,16.68357406
767,16.86202335
768,16.85530468
769,16.85937132
770,16.7862384
771,16.83603368
772,16.77099949
773,16.88916801
774,16.71070632
775,16.76110819
776,16.84028396
777,16.65331938
778,16.80990441
779,16.82384688
780,16.80357042
781,16.84585051
782,16.75880264
783,16.74352673
784,16.82861688
785,16.86931347
786,16.7299798
787,16.79775338
788,16.79224248
789,16.69694614
790,16.75279812
791,16.93601752
792,16.80292012
793,16.83696691
794,16.78979226
795,16.81228245
796,16.75726357
797,16.85219072
798,16.78313939
799,16.93218564
800,16.84525872
801,16.85022078
802,16.73715105
803,16.8132118
804,16.7991077
805,16.68519132
806,16.78882637
807,16.67859195
808,16.78887724
809,16.77126643
810,16.86014397
811,16.83316479
812,16.78252768
813,16.85894264
814,16.71402298
815,16.8350415
816,16.8796459
817,16.75188182
818,16.95766309
819,16.75087941
820,16.85477975
821,16.84244354
822,16.85155904
823,16.83243277
824,16.77000488
825,16.83067988
826,16.75974612
827,16.71981639
828,16.8517284
829,16.909651
830,16.8374504
831,16.84688028
832,16.81546938
833,16.71512922
834,16.81040651
835,16.81596423
836,16.87007679
837,16.99175382
838,16.86862851
839,16.81424981
840,16.80737985
841,16.88359625
842,16.83963297
843,16.85394929
844,16.79419686
845,16.79354636
846,16.83794825
847,16.90648406
848,16.78343382
849,16.9148419
850,16.71632524
851,16.84202656
852,16.87417852
853,16.82363793
854,16.82982595
855,16.86029321
856,16.8099084
857,16.88576721
858,16.92950621
859,16.94472294
860,16.88707282
861,16.92494404
862,16.78241537
863,16.8057959
864,16.79569793
865,16.89376208
866,16.81433373
867,16.82086477
868,16.84377561
869,16.94059489
870,16.73564891
871,16.80793413
872,16.83346791
873,16.79336042
874,16.80262817
875,16.87193946
876,16.84881317
877,16.82949009
878,16.92021436
879,16.84715162
880,16.84606235
881,16.90553696
882,16.85587286
883,16.87198482
884,17.03239758
885,16.86628619
886,16.9475989
887,16.87405834
888,16.89793486
889,16.91845301
890,16.86252858
891,16.85653915
892,16.97423407
893,16.93885992
894,16.86257844
895,16.76657233
896,16.91335065
897,16.85010642
898,16.81030617
899,16.81458313
900,16.87356239
901,16.88385733
902,16.87210506
903,16.85312985
904,16.92713991
905,16.88622902
906,16.89347215
907,16.91064147
908,16.93641212
909,16.84786655
910,16.86734331
911,16.97379608
912,16.98709588
913,16.90027496
914,16.94143062
915,16.83925682
916,16.97652769
917,16.93350947
918,16.96292543
919,16.89961709
920,16.86937676
921,16.96728557
922,16.97473144
923,16.86536379
924,16.9864158
925,16.87000123
926,16.91537401
927,16.979897
928,16.9401746
929,16.98991757
930,17.02773403
931,17.01311752
932,16.87750655
933,16.92172179
934,17.03134026
935,17.00740515
936,17.05204269
937,16.89670773
938,16.90279403
939,17.10260307
940,17.03594419
941,17.06395483
942,17.11383139
943,17.12244378
944,16.96925393
945,16.95287009
946,16.96444651
947,16.9530885
948,17.04220528
949,17.09443889
950,16.98561983
951,16.96977727
952,16.9431588
953,16.9256929
954,17.07654076
955,16.95470604
956,16.9756497
957,17.10784763
958,17.02008183
959,17.02868353
960,17.04339891
961,16.99962544
962,17.08491529
963,17.03908835
964,17.14773651
965,16.96944935
966,16.97443879
967,17.09120599
968,16.94571512
969,17.09601929
970,16.98666543
971,17.0270467
972,17.07851302
973,17.05996652
974,17.00075659
975,17.04817356
976,17.11602653
977,17.03416208
978,17.11274371
979,16.97301809
980,17.08732071
981,17.02715135
982,16.85656376
983,17.03183809
984,17.01783524
985,17.05210019
986,17.07641513
987,17.12122287
988,16.9936589
989,17.09393144
990,16.98672259
991,17.11306138
992,17.01517828
993,17.06815352
994,17.14228409
995,17.14276717
996,17.10483176
997,17.05017182
998,17.11138503
999,17.10101708
1000,17.2006938
1001,17.13246365
1002,17.07519215
1003,17.12088119
1004,17.10743178
1005,17.04693768
1006,17.04893885
1007,17.06773717
1008,17.05716244
1009,17.17697783
1010,17.10042677
1011,17.15554366
1012,17.0745324
1013,17.05636696
1014,17.0505877
1015,17.14139296
1016,17.08757503
1017,17.12766676
1018,17.07692015
1019,17.07787618
1020,17.14984137
1021,17.094737
1022,17.18471647
1023,17.09676708
1024,17.03758442
1025,16.96380447
1026,17.10186599
1027,17.03538506
1028,17.04132961
1029,17.13958062
1030,17.08642142
1031,17.04310878
1032,17.21130352
1033,17.09619454
1034,17.04352639
1035,17.20700291
1036,17.095506
1037,17.01948127
1038,17.05677474
1039,17.01687307
1040,17.01440187
1041,17.12607542
1042,17.0255719
1043,17.08534387
1044,17.11465583
1045,17.01156886
1046,17.03297371
1047,17.20168489
1048,16.98241363
1049,16.99783647
1050,17.19328189
1051,17.09931805
1052,17.07610377
1053,17.08076137
1054,17.14709577
1055,17.03967908
1056,17.14171164
1057,17.08837147
1058,17.23137634
1059,17.08046799
1060,16.99399703
1061,17.07058711
1062,17.04042194
1063,16.99704073
1064,17.00152131
1065,17.06725176
1066,16.98014052
1067,17.08130239
1068,17.09062804
1069,17.02754593
1070,17.02358311
1071,17.01849269
1072,17.04127105
1073,17.03171375
1074,17.13234217
1075,16.98662563
1076,17.10053911
1077,17.00184895
1078,17.00573479
1079,17.08164355
1080,17.01041765
1081,17.04208372
1082,17.02203568
1083,17.02031416
1084,17.10228988
1085,16.96085334
1086,16.9478528
1087,16.99258854
1088,17.01845508
1089,16.93800968
1090,17.02291578
1091,17.10248593
1092,17.05983805
1093,16.9762376
1094,17.0190708
1095,17.06033951
1096,17.00061395
1097,17.00502052
1098,17.02441537
1099,17.02136258
1100,17.02135275
1101,16.91167071
1102,16.95506047
1103,17.03018134
1104,17.00555557
1105,16.94192919
1106,16.95940416
1107,17.03597834
1108,16.9612879
1109,16.96006119
1110,16.99814115
1111,16.95920262
1112,16.89847141
1113,16.98686306
1114,17.06502524
1115,16.99538712
1116,17.01606258
1117,16.91921812
1118,16.93016202
1119,16.91038092
1120,17.04920651
1121,16.92975171
1122,16.96574133
1123,16.92194107
1124,16.84688266
1125,16.9149622
1126,16.90350643
1127,16.8672121
1128,16.9371106
1129,16.89462218
1130,16.87348838
1131,16.99010523
1132,16.9698504
1133,16.86615768
1134,16.8109664
1135,16.83592362
1136,17.0225249
1137,16.97773466
1138,16.97921479
1139,16.83810174
1140,16.93032154
1141,16.86215166
1142,16.83794861
1143,16.8773702
1144,16.89339482
1145,16.91093759
1146,16.97682921
1147,16.90522129
1148,16.91687247
1149,16.91455383
1150,16.88726913
1151,16.91064431
1152,16.92901298
1153,16.88604863
1154,16.8673653
1155,16.90398075
1156,16.99045576
1157,16.89949087
1158,16.87746308
1159,16.81910192
1160,16.91276777
1161,16.94004081
1162,16.93233743
1163,16.86209903
1164,16.92988879
1165,16.91555333
1166,16.85538175
1167,16.9465439
1168,16.79444535
1169,16.94997265
1170,16.75751461
1171,16.8490791
1172,16.82878535
1173,16.83276108
1174,16.9133597
1175,16.81401219
1176,16.92168567
1177,16.8131629
1178,16.87762751
1179,16.80510051
1180,16.803689
1181,16.86705535
1182,16.73743295
1183,16.83869168
1184,16.83162465
1185,16.79956591
1186,16.9466221
1187,16.84581486
1188,16.83650892
1189,16.9283662
1190,16.84465776
1191,16.85961835
1192,16.79205338
1193,16.7330191
1194,16.89061029
1195,16.79864603
1196,16.88407543
1197,16.80667407
1198,16.76211784
1199,16.79992033
1200,16.85093689
1201,16.84584281
1202,16.95163542
1203,16.78418895
1204,16.80317599
1205,16.7781924
1206,16.70868262
1207,16.83441376
1208,16.91506848
1209,16.81302764
1210,16.77159062
1211,16.818313
1212,16.94644656
1213,16.83234642
1214,16.86135619
1215,16.79962094
1216,16.76200072
1217,16.86331137
1218,16.91289647
1219,16.90162861
1220,16.89678175
1221,16.84385817
1222,16.80154358
1223,16.89138953
1224,16.85041401
1225,16.84392485
1226,16.72641564
1227,16.75874836
1228,16.74542864
1229,16.79431793
1230,16.88486228
1231,16.77270357
1232,16.87009176
1233,16.77494296
1234,16.79676876
1235,16.8297022
1236,16.81857778
1237,16.86453573
1238,16.64973437
1239,16.84404568
1240,16.77941247
1241,16.73677217
1242,16.83048595
1243,16.82351114
1244,16.81435609
1245,16.84237377
1246,16.76317486
1247,16.88752323
1248,16.8489931
1249,16.74343872
1250,16.76735614
1251,16.77242612
1252,16.79893437
1253,16.77792536
1254,16.68236805
1255,16.78693605
1256,16.86477352
1257,16.92009514
1258,16.8360979
1259,16.82717245
1260,16.74498918
1261,16.63788976
1262,16.74767154
1263,16.78497249
1264,16.77971093
1265,16.78093277
1266,16.89887327
1267,16.87174136
1268,16.77772358
1269,16.86626104
1270,16.72644805
1271,16.79928377
1272,16.72391563
1273,16.89696417
1274,16.7185941
1275,16.82723155
1276,16.74505599
1277,16.75924228
1278,16.84856278
1279,16.823422
1280,16.7284625
1281,16.76778624
1282,16.83496661
1283,16.91522349
1284,16.90692192
1285,16.77718303
1286,16.70841497
1287,16.77442991
1288,16.83189054
1289,16.85915954
1290,16.82634031
1291,16.86394814
1292,16.8464457
1293,16.78157549
1294,16.78162678
1295,16.85841642
1296,16.87452901
1297,16.8851656
1298,16.83953054
1299,16.93913045
1300,16.80563876
1301,16.80969803
1302,16.83836214
1303,16.81105724
1304,16.84161656
1305,16.75288498
1306,16.79045003
1307,16.82370392
1308,16.7960282
1309,16.82629024
1310,16.81552375
1311,16.81174898
1312,16.80378768
1313,16.76816835
1314,16.83985885
1315,16.7415289
1316,16.81499484
1317,16.80620997
1318,16.78595125
1319,16.77458928
1320,16.8124867
1321,16.87648388
1322,16.84415624
1323,16.80660178
1324,16.81114888
1325,16.79618833
1326,16.75446946
1327,16.7328488
1328,16.95549809
1329,16.88600884
1330,16.7631052
1331,16.79677628
1332,16.74395912
1333,16.76624213
1334,16.74418055
1335,16.82076601
1336,16.78057296
1337,16.79254843
1338,16.87076814
1339,16.70898448
1340,16.79744926
1341,16.67426259
1342,16.85391635
1343,16.76291253
1344,16.8255412
1345,16.87157095
1346,16.7701936
1347,16.75510499
1348,16.90209884
1349,16.70597614
1350,16.7797909
1351,16.79202919
1352,16.77403837
1353,16.73756166
1354,16.73411993
1355,16.84376916
1356,16.83088612
1357,16.73012609
1358,16.75308004
1359,16.83979328
1360,16.74407246
1361,16.71148455
1362,16.82193672
1363,16.79826786
1364,16.81802317
1365,16.77784304
1366,16.88014517
1367,16.78490704
1368,16.7771135
1369,16.77792432
1370,16.91741435
1371,16.76302922
1372,16.85234131
1373,16.88861742
1374,16.78085708
1375,16.88685036
1376,16.8214171
1377,16.84236605
1378,16.86890842
1379,16.84060424
1380,16.86725508
1381,16.79752339
1382,16.84364769
1383,16.74934264
1384,16.92796712
1385,16.77756871
1386,16.77152372
1387,16.90223834
1388,16.8318383
1389,16.74724754
1390,16.70388191
1391,16.84839562
1392,16.68047095
1393,16.7143277
1394,16.70460621
1395,16.75334988
1396,16.82878601
1397,16.77611199
1398,16.79514333
1399,16.6694059
1400,16.75846743
1401,16.89619709
1402,16.75152876
1403,16.80124237
1404,16.82218155
1405,16.89423408
1406,16.90996959
1407,16.75051732
1408,16.83298541
1409,16.84284165
1410,16.69868766
1411,16.79044987
1412,16.81145849
1413,16.72727571
1414,16.8261504
1415,16.73596348
1416,16.74035598
1417,16.90927742
1418,16.77361939
1419,16.81865044
1420,16.86892847
1421,16.82233911
1422,16.81834824
1423,16.86303583
1424,16.69963341
1425,16.86077122
1426,16.70573745
1427,16.82867096
1428,16.75265861
1429,16.766323
1430,16.77880645
1431,16.70694555
1432,16.81716718
1433,16.80960027
1434,16.7134212
1435,16.81264911
1436,16.8425886
1437,16.86407441
1438,16.81802015
1439,16.65743663
1440,16.85393825
1441,16.75780421
1442,16.8432229
1443,16.79710682
1444,16.85481239
1445,16.7897137
1446,16.71650251
1447,16.82459935
1448,16.71373435
1449,16.79561038
1450,16.8726176
1451,16.81253612
1452,16.77661027
1453,16.78269222
1454,16.73174699
1455,16.8393157
1456,16.76204437
1457,16.75037697
1458,16.79066418
1459,16.87654602
1460,16.84026638
1461,16.81466128
1462,16.7625305
1463,16.76448216
1464,16.77371209
1465,16.86365826
1466,16.78000626
1467,16.8550876
1468,16.84520127
1469,16.76491385
1470,16.7510909
1471,16.69028447
1472,16.84264597
1473,16.76982735
1474,16.85378968
1475,16.77847148
1476,16.7752018
1477,16.74498472
1478,16.77945808
1479,16.82930278
1480,16.88413134
1481,16.80872781
1482,16.77940035
1483,16.8951199
1484,16.79321482
1485,16.69690778
1486,16.70972753
1487,16.76985605
1488,16.82104448
1489,16.7664382
1490,16.7428278
1491,16.87330516
1492,16.81475672
1493,16.89030339
1494,16.74634577
1495,16.76075877
1496,16.82069662
1497,16.81090376
1498,16.85743714
1499,16.82174518
1500,16.82150693
1501,16.73305658
1502,16.84853304
1503,16.77019558
1504,16.78304917
1505,16.79245246
1506,16.81991695
1507,16.81635446
1508,16.79031734
1509,16.707296
1510,16.8162628
1511,16.76450808
1512,16.77019066
1513,16.77066011
1514,16.83690625
1515,16.80533576
1516,16.85935636
1517,16.75605964
1518,16.83664644
1519,16.87308883
1520,16.75434541
1521,16.82457414
1522,16.75511673
1523,16.88202726
1524,16.82312908
1525,16.8005126
1526,16.80956515
1527,16.78634067
1528,16.68517705
1529,16.79244892
1530,16.76957618
1531,16.76121243
1532,16.73930001
1533,16.7205927
1534,16.75102141
1535,16.78288828
1536,16.74204745
1537,16.75607901
1538,16.81838583
1539,16.71970915
1540,16.74007676
1541,16.80129865
1542,16.88492894
1543,16.88358693
1544,16.75756755
1545,16.87434191
1546,16.73226305
1547,16.74721216
1548,16.84256356
1549,16.81364742
1550,16.77203137
1551,16.74665317
1552,16.81428922
1553,16.81658391
1554,16.79771376
1555,16.80211635
1556,16.88170451
1557,16.85193992
1558,16.86463092
1559,16.88670204
1560,16.91658572
1561,16.74327817
1562,16.81196931
1563,16.75380362
1564,16.90333175
1565,16.82563101
1566,16.8229568
1567,16.78233302
1568,16.66245388
1569,16.83368916
1570,16.84924679
1571,16.80517297
1572,16.83669796
1573,16.76680642
1574,16.85938013
1575,16.73476798
1576,16.80341202
1577,16.73335355
1578,16.78982668
1579,16.82940313
1580,16.87301413
1581,16.75064452
1582,16.68830719
1583,16.79658516
1584,16.83625483
1585,16.88008767
1586,16.85245257
1587,16.78429715
1588,16.77214804
1589,16.79752573
1590,16.72429024
1591,16.78768063
1592,16.75475869
1593,16.87811986
1594,16.83132298
1595,16.9053342
1596,16.71348597
1597,16.87955439
1598,16.81080884
1599,16.72818003
1600,16.83957707
1601,16.85768986
1602,16.81186136
1603,16.78825307
1604,16.82873823
1605,16.81977038
1606,16.80643065
1607,16.74840378
1608,16.73859948
1609,16.86408767
1610,16.80093525
1611,16.84858791
1612,16.85716412
1613,16.71170716
1614,16.90218958
1615,16.75381114
1616,16.83633393
1617,16.75913269
1618,16.83255851
1619,16.80741192
1620,16.71974797
1621,16.77438075
1622,16.89355334
1623,16.77749878
1624,16.84073385
1625,16.71304462
1626,16.85295594
1627,16.81047662
1628,16.74006553
1629,16.80564035
1630,16.79024346
1631,16.83629704
1632,16.7621021
1633,16.77679203
1634,16.87451831
1635,16.87905671
1636,16.78946662
1637,16.8560645
1638,16.86773691
1639,16.83034834
1640,16.77025489
1641,16.82015006
1642,16.83363073
1643,16.79988221
1644,16.70937895
1645,16.80994541
1646,16.88858103
1647,16.81467459
1648,16.73818801
1649,16.83541864
1650,16.83438713
1651,16.82521714
1652,16.84493766
1653,16.81672312
1654,16.7315664
1655,16.76910642
1656,16.7687136
1657,16.7887295
1658,16.86091436
1659,16.81476189
1660,16.75400684
1661,16.8735922
1662,16.79024788
1663,16.73776238
1664,16.76727101
1665,16.78106423
1666,16.84591478
1667,16.86831646
1668,16.80912874
1669,16.75275781
1670,16.69696184
1671,16.79660218
1672,16.82395853
1673,16.75942119
1674,16.78040809
1675,16.82406753
1676,16.85152543
1677,16.78937127
1678,16.84989313
1679,16.88792854
1680,16.84620686
1681,16.87431948
1682,16.70997153
1683,16.81737629
1684,16.81232898
1685,16.82484208
1686,16.73036161
1687,16.84884098
1688,16.73310036
1689,16.8517531
1690,16.83362308
1691,16.80386009
1692,16.68667236
1693,16.71260792
1694,16.75583744
1695,16.8800132
1696,16.82109682
1697,16.72790844
1698,16.8647604
1699,16.82892293
1700,16.92936141
1701,16.74599495
1702,16.70497143
1703,16.85322245
1704,16.85832773
1705,16.80518034
1706,16.80308637
1707,16.73369263
1708,16.80970279
1709,16.75848997
1710,16.8288239
1711,16.90785349
1712,16.74659104
1713,16.75345404
1714,16.73329538
1715,16.80799471
1716,16.86010151
1717,16.70305261
1718,16.78836749
1719,16.74156327
1720,16.79810874
1721,16.83191037
1722,16.67565018
1723,16.80323053
1724,16.67887974
1725,16.7769876
1726,16.80337038
1727,16.80589874
1728,16.8123979
1729,16.80434274
1730,16.74764053
1731,16.82899644
1732,16.8163631
1733,16.77626696
1734,16.84664763
1735,16.72731046
1736,16.72999391
1737,16.70217541
1738,16.66791769
1739,16.70241212
1740,16.83810571
1741,16.81451398
1742,16.88415613
1743,16.76402551
1744,16.75187359
1745,16.81369852
1746,16.6787645
1747,16.84004012
1748,16.80509476
1749,16.82771832
1750,16.82072563
1751,16.78301768
1752,16.77548226
1753,16.77783161
1754,16.79924992
1755,16.84489867
1756,16.82696706
1757,16.75083204
1758,16.77490199
1759,16.75177836
1760,16.73557204
1761,16.83564817
1762,16.86086772
1763,16.77712318
1764,16.76618248
1765,16.83496221
1766,16.8700209
1767,16.87716702
1768,16.79077613
1769,16.82977055
1770,16.81301756
1771,16.82097725
1772,16.75950439
1773,16.73556707
1774,16.77348118
1775,16.86475295
1776,16.88249361
1777,16.8351062
1778,16.70741535
1779,16.73687368
1780,16.75228696
1781,16.81152033
1782,16.74483546
1783,16.82679797
1784,16.87186708
1785,16.74905282
1786,16.75959715
1787,16.8241987
1788,16.92527856
1789,16.74311189
1790,16.74061414
1791,16.90237119
1792,16.7417057
1793,16.81244693
1794,16.68398497
1795,16.77326589
1796,16.86524582
1797,16.7586089
1798,16.85192241
1799,16.90597448
1800,16.89948534
1801,16.78913107
1802,16.86654957
1803,16.89300547
1804,16.72108813
1805,16.75929107
1806,16.83893742
1807,16.69292674
1808,16.73931554
1809,16.71923472
1810,16.81071086
1811,16.77851342
1812,16.77680091
1813,16.78802661
1814,16.81272641
1815,16.75815234
1816,16.73594508
1817,16.75956369
1818,16.77347728
1819,16.77684133
1820,16.79210415
1821,16.72219428
1822,16.79800693
1823,16.82770861
1824,16.73907941
1825,16.79727717
1826,16.78794467
1827,16.76490394
1828,16.80765275
1829,16.72686178
1830,16.73528956
1831,16.83943615
1832,16.76323697
1833,16.85623733
1834,16.90860071
1835,16.84135902
1836,16.84970471
1837,16.82966877
1838,16.87055068
1839,16.62640065
1840,16.81535577
1841,16.83255404
1842,16.78850443
1843,16.77497425
1844,16.68557707
1845,16.90301884
1846,16.78195805
1847,16.77524786
1848,16.74217683
1849,16.80331415
1850,16.7187529
1851,16.71218537
1852,16.86236859
1853,16.83188581
1854,16.84127474
1855,16.82543879
1856,16.88599295
1857,16.79899292
1858,16.85888424
1859,16.75629568
1860,16.76480373
1861,16.75659086
1862,16.75992081
1863,16.78663881
1864,16.7669777
1865,16.84304534
1866,16.82765474
1867,16.81972494
1868,16.810592
1869,16.79229898
1870,16.7907621
1871,16.75603116
1872,16.75433148
1873,16.76341971
1874,16.79844641
1875,16.74579704
1876,16.78809616
1877,16.81749317
1878,16.8303714
1879,16.82783968
1880,16.85028734
1881,16.83905694
1882,16.78639819
1883,16.71334307
1884,16.74746675
1885,16.83417793
1886,16.81350004
1887,16.81088768
1888,16.83210338
1889,16.78900225
1890,16.86505443
1891,16.80747837
1892,16.82026736
1893,16.87669766
1894,16.71603319
1895,16.77328257
1896,16.78223267
1897,16.70288775
1898,16.71042708
1899,16.67415382
1900,16.77621677
1901,16.81062606
1902,16.91604785
1903,16.8436181
1904,16.78500731
1905,16.80067781
1906,16.74447544
1907,16.83640267
1908,16.78540838
1909,16.80716713
1910,16.81056693
1911,16.72310757
1912,16.70694108
1913,16.84262538
1914,16.77656495
1915,16.89711537
1916,16.85824339
1917,16.7663469
1918,16.78476572
1919,16.86832798
1920,16.80438362
1921,16.85637578
1922,16.81854764
1923,16.79505151
1924,16.88812158
1925,16.77941515
1926,16.95781115
1927,16.87383635
1928,16.70051309
1929,16.72171333
1930,16.87840491
1931,16.79803191
1932,16.88134931
1933,16.85573557
1934,16.80464237
1935,16.7677009
1936,16.85684561
1937,16.81001957
1938,16.73980427
1939,16.85771811
1940,16.79322154
1941,16.75059969
1942,16.77503216
1943,16.88688621
1944,16.74934756
1945,16.70326591
1946,16.67850552
1947,16.74385593
1948,16.80033342
1949,16.83344496
1950,16.75161764
1951,16.82415566
1952,16.89565221
1953,16.86201607
1954,16.8531023
1955,16.71126679
1956,16.84474387
1957,16.7287696
1958,16.78098285
1959,16.82905748
1960,16.83098271
1961,16.88345621
1962,16.88467351
1963,16.92068615
1964,16.84955145
1965,16.80848374
1966,16.7878054
1967,16.83570134
1968,16.81878328
1969,16.84991147
1970,16.73643102
1971,16.84023948
1972,16.8798553
1973,16.86686479
1974,16.92453206
1975,16.76011462
1976,16.71603468
1977,16.86454508
1978,16.83931518
1979,16.78128717
1980,16.77061723
1981,16.82764097
1982,16.87229444
1983,16.7383974
1984,16.76151504
1985,16.85567824
1986,16.79957241
1987,16.83034963
1988,16.71929971
1989,16.78293652
1990,16.83420577
1991,16.81707039
1992,16.87635251
1993,16.85566034
1994,16.88099817
1995,16.85167683
1996,16.83035809
1997,16.80009972
1998,16.75939409
1999,16.81010209
2000,16.76776862
2001,16.77362966
2002,16.68992606
2003,16.84527452
2004,16.77042321
2005,16.76020318
2006,16.85671918
2007,16.83841541
2008,16.77525408
2009,16.81964109
2010,16.75669605
2011,16.82187211
2012,16.81545051
2013,16.83646386
2014,16.72624573
2015,16.83937385
2016,16.83930816
2017,16.77745068
2018,16.88006411
2019,16.83957793
2020,16.83133657
2021,16.79169639
2022,16.7304568
2023,16.76832797
2024,16.89296932
2025,16.87700091
2026,16.75130457
2027,16.74134994
2028,16.69276068
2029,16.76484351
2030,16.78492604
2031,16.86902189
2032,16.8252492
2033,16.89399659
2034,16.81544809
2035,16.8243972
2036,16.82785272
2037,16.81099529
2038,16.77011215
2039,16.71872478
2040,16.76063692
2041,16.76997871
2042,16.80027647
2043,16.83484768
2044,16.75367704
2045,16.75958004
2046,16.85680723
2047,16.7029935
2048,16.8139979
2049,16.70154706
2050,16.84451859
2051,16.93067646
2052,16.67795351
2053,16.83280127
2054,16.8036934
2055,16.82979938
2056,16.85033561
2057,16.74824646
2058,16.87149949
2059,16.90775364
2060,16.69778925
2061,16.75774999
2062,16.8117239
2063,16.87341163
2064,16.76926763
2065,16.74675671
2066,16.78487799
2067,16.80336841
2068,16.83682821
2069,16.83612084
2070,16.83821637
2071,16.81855983
2072,16.79101703
2073,16.81445791
2074,16.84162308
2075,16.83995841
2076,16.86109626
2077,16.74505958
2078,16.74068043
2079,16.77453461
2080,16.82517693
2081,16.78552384
2082,16.85467852
2083,16.82321213
2084,16.83256712
2085,16.92413948
2086,16.70773856
2087,16.79906537
2088,16.71570512
2089,16.76829704
2090,16.71284367
2091,16.70165735
2092,16.84379968
2093,16.76508075
2094,16.72782814
2095,16.75122576
2096,16.80803488
2097,16.83610901
2098,16.80722438
2099,16.71279823
2100,16.7313896
2101,16.76568823
2102,16.72395502
2103,16.71658316
2104,16.88853136
2105,16.77953788
2106,16.79758908
2107,16.71915279
2108,16.77707976
2109,16.85006752
2110,16.85562474
2111,16.89122637
2112,16.76129498
2113,16.76450176
2114,16.85904441
2115,16.90022883
2116,16.84274457
2117,16.78567149
2118,16.77060131
2119,16.84365641
2120,16.84215964
2121,16.81914384
2122,16.82747604
2123,16.77787902
2124,16.86343386
2125,16.81347597
2126,16.89581181
2127,16.74794414
2128,16.79184881
2129,16.75468656
2130,16.71130221
2131,16.89299745
2132,16.73795774
2133,16.79745843
2134,16.82814836
2135,16.77060851
2136,16.82054797
2137,16.76675537
2138,16.71502863
2139,16.79670734
2140,16.75772702
2141,16.78740671
2142,16.79031737
2143,16.82954056
2144,16.76825543
2145,16.73217642
2146,16.7476424
2147,16.81272962
2148,16.80555902
2149,16.82852133
2150,16.73699106
2151,16.83990024
2152,16.84820196
2153,16.7381513
2154,16.78826331
2155,16.80610895
2156,16.7780598
2157,16.73774331
2158,16.84478061
2159,16.91207801
2160,16.71594724
2161,16.93375913
2162,16.68509664
2163,16.63619558
2164,16.82798814
2165,16.75159644
2166,16.7125399
2167,16.8011297
2168,16.8516147
2169,16.68785521
2170,16.74494546
2171,16.92842536
2172,16.89370396
2173,16.72994628
2174,16.89441212
2175,16.80777721
2176,16.84434201
2177,16.84072397
2178,16.8237605
2179,16.67348307
2180,16.88758994
2181,16.85116478
2182,16.72265795
2183,16.85054122
2184,16.76763166
2185,16.88870655
2186,16.74360184
2187,16.78708488
2188,16.88448225
2189,16.76728935
2190,16.7190756
2191,16.86181487
2192,16.73930151
2193,16.71102215
2194,16.78734073
2195,16.73566497
2196,16.81769078
2197,16.81578253
2198,16.74839243
2199,16.78082681
2200,16.65619741
2201,16.80685363
2202,16.70922867
2203,16.76721708
2204,16.78447955
2205,16.74391875
2206,16.81449332
2207,16.73516044
2208,16.68328392
2209,16.71509662
2210,16.72716595
2211,16.76295386
2212,16.82221272
2213,16.84246819
2214,16.88711301
2215,16.80363221
2216,16.73365456
2217,16.80120031
2218,16.85259011
2219,16.76750337
2220,16.81545705
2221,16.87021576
2222,16.70547582
2223,16.76330164
2224,16.78937445
2225,16.74852332
2226,16.85544904
2227,16.73247572
2228,16.80428177
2229,16.80674897
2230,16.85081154
2231,16.79160172
2232,16.89839907
2233,16.89980207
2234,16.80517358
2235,16.82970557
2236,16.86404806
2237,16.84083955
2238,16.78750493
2239,16.88276522
2240,16.73235701
2241,16.77370986
2242,16.8510474
2243,16.76453302
2244,16.79794183
2245,16.82006101
2246,16.78406548
2247,16.76667156
2248,16.83421938
2249,16.86282859
2250,16.76487308
2251,16.74145158
2252,16.82046962
2253,16.86530071
2254,16.80695658
2255,16.68635958
2256,16.89095151
2257,16.86796457
2258,16.7368466
2259,16.89240144
2260,16.81494365
2261,16.76855463
2262,16.88459222
2263,16.77109384
2264,16.75339942
2265,16.76156155
2266,16.86520307
2267,16.75629085
2268,16.8424256
2269,16.831027
2270,16.75534964
2271,16.772166
2272,16.90898701
2273,16.81492076
2274,16.79163098
2275,16.94812692
2276,16.71742008
2277,16.78882829
2278,16.81102903
2279,16.77697867
2280,16.90112825
2281,16.74756884
2282,16.77480518
2283,16.79179018
2284,16.87112837
2285,16.80537792
2286,16.89761749
2287,16.90832318
2288,16.78378947
2289,16.82752994
2290,16.74677457
2291,16.75702209
2292,16.84061752
2293,16.86042867
2294,16.78777532
2295,16.81477985
2296,16.91831539
2297,16.77901755
2298,16.8624615
2299,16.68746697
2300,16.75502402
2301,16.65911216
2302,16.88802269
2303,16.91038602
2304,16.80125913
2305,16.78964664
2306,16.8952669
2307,16.79610553
2308,16.7422056
2309,16.70191057
2310,16.87403996
2311,16.8602525
2312,16.86293279
2313,16.74656687
2314,16.91305301
2315,16.69327863
2316,16.7812491
2317,16.77048294
2318,16.89941908
2319,16.84204436
2320,16.73642759
2321,16.79763276
2322,16.89298027
2323,16.82457894
2324,16.917587
2325,16.7763553
2326,16.81873035
2327,16.73667223
2328,16.74996464
2329,16.7590911
2330,16.81891652
2331,16.76566673
2332,16.86132305
2333,16.87561055
2334,16.76528214
2335,16.84340971
2336,16.77051056
2337,16.70352754
2338,16.94825508
2339,16.83273424
2340,16.79698241
2341,16.91161283
2342,16.87724397
2343,16.7992895
2344,16.88401245
2345,16.7837695
2346,16.91215639
2347,16.85116296
2348,16.81012762
2349,16.8937509
2350,16.77435786
2351,16.81133533
2352,16.92713923
2353,16.68426432
2354,16.77588692
2355,16.72516591
2356,16.71829899
2357,16.87249788
2358,16.73235286
2359,16.82455503
2360,16.82738901
2361,16.62992986
2362,16.84663246
2363,16.66845936
2364,16.79092105
2365,16.87552667
2366,16.87318295
2367,16.76690673
2368,16.74691662
2369,16.7641886
2370,16.80143845
2371,16.7143105
2372,16.80486856
2373,16.76295778
2374,16.78975684
2375,16.67464882
2376,16.68489773
2377,16.84875288
2378,16.73084765
2379,16.87000233
2380,16.89619833
2381,16.85376416
2382,16.83957413
2383,16.90885354
2384,16.86552115
2385,16.88553675
2386,16.8599071
2387,16.72925365
2388,16.88778422
2389,16.84709167
2390,16.81251783
2391,16.81959733
2392,16.81671412
2393,16.77696397
2394,16.75950398
2395,16.74448149
2396,16.75666817
2397,16.85283948
2398,16.79756028
2399,16.80167274
2400,16.83641522
2401,16.76978951
2402,16.68024818
2403,16.81087513
2404,16.77343381
2405,16.77049435
2406,16.8408705
2407,16.79969725
2408,16.76231885
2409,16.86521327
2410,16.94986441
2411,16.80924887
2412,16.79610222
2413,16.85270812
2414,16.80321867
2415,16.87104478
2416,16.72083369
2417,16.74563523
2418,16.83060692
2419,16.7915427
2420,16.85456688
2421,16.80600293
2422,16.84698266
2423,16.76814336
2424,16.85876329
2425,16.83250533
2426,16.85275488
2427,16.86278285
2428,16.72470486
2429,16.90769021
2430,16.67817323
2431,16.73159404
2432,16.79385587
2433,16.71377357
2434,16.77622649
2435,16.76348062
2436,16.75080297
2437,16.8477068
2438,16.83271382
2439,16.9072992
2440,16.83552429
2441,16.84085944
2442,16.7091045
2443,16.84278581
2444,16.79427792
2445,16.80668775
2446,16.80990661
2447,16.81337565
2448,16.80297801
2449,16.86143134
2450,16.88121662
2451,16.90838448
2452,16.81071091
2453,16.94519372
2454,16.78221847
2455,16.79596998
2456,16.81553269
2457,16.82485425
2458,16.83366753
2459,16.76612717
2460,16.76368989
2461,16.93767608
2462,16.80261627
2463,16.77675636
2464,16.79375529
2465,16.82627906
2466,16.77643214
2467,16.70780772
2468,16.73455564
2469,16.78968644
2470,16.80894893
2471,16.68968781
2472,16.75851953
2473,16.84051544
2474,16.77724503
2475,16.73750515
2476,16.85559481
2477,16.779228
2478,16.84054503
2479,16.8344911
2480,16.72366872
2481,16.84658257
2482,16.73949351
2483,16.67636537
2484,16.75408765
2485,16.80784096
2486,16.8431992
2487,16.88081824
2488,16.82479525
2489,16.80335761
2490,16.80915832
2491,16.91311168
2492,16.70085783
2493,16.72383169
2494,16.69932462
2495,16.83154478
2496,16.75459131
2497,16.85745815
2498,16.78237214
2499,16.88294294
2500,16.87925349
2501,16.76940206
2502,16.93500832
2503,16.83640831
2504,16.86568702
2505,16.83285522
2506,16.74624953
2507,16.80625555
2508,16.76676362
2509,16.69913573
2510,16.85464883
2511,16.82733943
2512,16.88368567
2513,16.91870239
2514,16.78606916
2515,16.78598365
2516,16.87137839
2517,16.78764973
2518,16.76940345
2519,16.74430842
2520,16.7214784
2521,16.78773191
2522,16.84990743
2523,16.85107531
2524,16.78146974
2525,16.75971015
2526,16.91743704
2527,16.81399135
2528,16.83725928
2529,16.84548003
2530,16.75717532
2531,16.84382796
2532,16.73138738
2533,16.7651343
2534,16.7938304
2535,16.78607119
2536,16.75324489
2537,16.72401061
2538,16.73828367
2539,16.87222017
2540,16.78526132
2541,16.75111741
2542,16.7713626
2543,16.72136699
2544,16.78645184
2545,16.85833521
2546,16.84157311
2547,16.83869432
2548,16.77597775
2549,16.68592135
2550,16.87454306
2551,16.636662
2552,16.73778169
2553,16.85309604
2554,16.84628447
2555,16.80381678
2556,16.76258097
2557,16.85140668
2558,16.89616068
2559,16.76798022
2560,16.89427181
2561,16.79803099
2562,16.81309325
2563,16.83111501
2564,16.77549487
2565,16.72134137
2566,16.87267816
2567,16.70459115
2568,16.75997986
2569,16.70231675
2570,16.90239945
2571,16.8028435
2572,16.80383345
2573,16.75176082
2574,16.81683619
2575,16.84683216
2576,16.82257122
2577,16.7619775
2578,16.79956472
2579,16.7415026
2580,16.74834941
2581,16.72462037
2582,16.72911226
2583,16.99096458
2584,16.80473518
2585,16.76184417
2586,16.75646978
2587,16.79163787
2588,16.79890865
2589,16.71814067
2590,16.78928619
2591,16.82479939
2592,16.89808806
2593,16.85615186
2594,16.88853776
2595,16.85645488
2596,16.82633841
2597,16.85182311
2598,16.7429855
2599,16.84272193
2600,16.83466146
2601,16.84315136
2602,16.84449561
2603,16.76512934
2604,16.64837059
2605,16.91110397
2606,16.83300782
2607,16.87280151
2608,16.82607195
2609,16.8181169
2610,16.80984593
2611,16.82526365
2612,16.80541711
2613,16.6951735
2614,16.79815473
2615,16.85277127
2616,16.85587554
2617,16.83737613
2618,16.75367405
2619,16.76861269
2620,16.87212233
2621,16.78742961
2622,16.74993937
2623,16.8964496
2624,16.75429696
2625,16.81566206
2626,16.71760979
2627,16.70678412
2628,16.81711401
2629,16.80010772
2630,16.919533
2631,16.87870599
2632,16.71133699
2633,16.86930277
2634,16.78293792
2635,16.85977889
2636,16.81710928
2637,16.94665548
2638,16.79227952
2639,16.85983556
2640,16.68519021
2641,16.74894251
2642,16.79260012
2643,16.67394213
2644,16.82815434
2645,16.76053944
2646,16.80240306
2647,16.72667571
2648,16.69477645
2649,16.87894189
2650,16.77579026
2651,16.68707332
2652,16.72101176
2653,16.82229653
2654,16.83139384
2655,16.69593039
2656,16.79435918
2657,16.68248917
2658,16.89385874
2659,16.82087406
2660,16.77880874
2661,16.81726379
2662,16.75461581
2663,16.75874727
2664,16.83759344
2665,16.75653593
2666,16.81687348
2667,16.86959394
2668,16.82099174
2669,16.88373248
2670,16.77884402
2671,16.82862225
2672,16.65728131
2673,16.78246876
2674,16.69266856
2675,16.79718856
2676,16.76244725
2677,16.76558898
2678,16.75316102
2679,16.86360965
2680,16.84680827
2681,16.94824153
2682,16.7374585
2683,16.75699075
2684,16.7392289
2685,16.81656342
2686,16.69885268
2687,16.78290249
2688,16.73581626
2689,16.66292331
2690,16.81258817
2691,16.88717166
2692,16.80958578
2693,16.70235967
2694,16.8677194
2695,16.83361306
2696,16.77188905
2697,16.81016046
2698,16.70485959
2699,16.75280634
2700,16.63984423
2701,16.720124
2702,16.81425776
2703,16.82025595
2704,16.89957131
2705,16.79887033
2706,16.86023051
2707,16.93562732
2708,16.77944452
2709,16.71939206
2710,16.83687762
2711,16.81351243
2712,16.73360052
2713,16.84113965
2714,16.7746776
2715,16.7452803
2716,16.72665586
2717,16.82320241
2718,16.75685566
2719,16.73745406
2720,16.72736334
2721,16.82355431
2722,16.7419549
2723,16.92599106
2724,16.76955975
2725,16.84930306
2726,16.76328188
2727,16.84321858
2728,16.77476114
2729,16.78631248
2730,16.71354368
2731,16.78133363
2732,16.79137089
2733,16.81559427
2734,16.73772401
2735,16.7332483
2736,16.84065379
2737,16.69274696
2738,16.90238323
2739,16.89716345
2740,16.72903595
2741,16.69814423
2742,16.74600267
2743,16.82181266
2744,16.71137149
2745,16.91445019
2746,16.796276
2747,16.771623
2748,16.71951209
2749,16.81196754
2750,16.84930294
2751,16.77372628
2752,16.83222103
2753,16.76909672
2754,16.87839921
2755,16.84227086
2756,16.79083171
2757,16.80386959
2758,16.83619534
2759,16.84678115
2760,16.7069915
2761,16.88944167
2762,16.85703487
2763,16.78801919
2764,16.73682365
2765,16.79062549
2766,16.72040173
2767,16.73530517
2768,16.84660059
2769,16.8514107
2770,16.69389674
2771,16.82093834
2772,16.75650154
2773,16.83134598
2774,16.81864931
2775,16.73418451
2776,16.93948479
2777,16.78367232
2778,16.83342636
2779,16.87119509
2780,16.83675417
2781,16.67409841
2782,16.88970883
2783,16.86915658
2784,16.95053761
2785,16.6958491
2786,16.79459164
2787,16.83282405
2788,16.87735416
2789,16.82471204
2790,16.79066866
2791,16.85661358
2792,16.85707965
2793,16.76981548
2794,16.77106252
2795,16.69971475
2796,16.88567554
2797,16.78340408
2798,16.79185227
2799,16.89611189
2800,16.83151837
2801,16.81363945
2802,16.79496334
2803,16.86827012
2804,16.65544643
2805,16.79295368
2806,16.69388196
2807,16.67343941
2808,16.73870506
2809,16.82101785
2810,16.8360079
2811,16.87067673
2812,16.71357196
2813,16.838917
2814,16.68334888
2815,16.8261785
2816,16.78787289
2817,16.82901334
2818,16.79050272
2819,16.83195644
2820,16.79693228
2821,16.84002283
2822,16.83580513
2823,16.71738681
2824,16.8154997
2825,16.7708018
2826,16.86511545
2827,16.77628121
2828,16.7031821
2829,16.88329221
2830,16.72737889
2831,16.75214806
2832,16.81569031
2833,16.88778691
2834,16.86078745
2835,16.76237729
2836,16.78350479
2837,16.87075735
2838,16.70389892
2839,16.78993229
2840,16.79450335
2841,16.86813201
2842,16.81635816
2843,16.78770333
2844,16.83610824
2845,16.75504927
2846,16.82180146
2847,16.81025816
2848,16.85067436
2849,16.73098286
2850,16.76101925
2851,16.79423461
2852,16.81842842
2853,16.78595499
2854,16.71824844
2855,16.85731337
2856,16.74366056
2857,16.72930734
2858,16.75073411
2859,16.84687576
2860,16.68723383
2861,16.81181205
2862,16.74583561
2863,16.7686754
2864,16.77255763
2865,16.70879117
2866,16.83633826
2867,16.73950772
2868,16.7049501
2869,16.78328539
2870,16.835792
2871,16.7991856
2872,16.77689346
2873,16.86700635
2874,16.80465982
2875,16.71053219
2876,16.78827514
2877,16.83660481
2878,16.68671004
2879,16.82366814
2880,16.88696997
2881,16.86318885
2882,16.76818831
2883,16.86244279
2884,16.74291392
2885,16.85972525
2886,16.83310702
2887,16.82067723
2888,16.82038566
2889,16.77831796
2890,16.88623234
2891,16.809087
2892,16.83000578
2893,16.73030642
2894,16.90901291
2895,16.80669859
2896,16.78532877
2897,16.7980874
2898,16.74302752
2899,16.76782795
2900,16.79227821
2901,16.92377422
2902,16.86217109
2903,16.84968586
2904,16.78880411
2905,16.8003363
2906,16.85448545
2907,16.8349126
2908,16.83826062
2909,16.76568796
2910,16.85879732
2911,16.85375746
2912,16.8131387
2913,16.79778709
2914,16.77248374
2915,16.79269232
2916,16.84533874
2917,16.84155893
2918,16.88020757
2919,16.86575662
2920,16.77296228
2921,16.82225543
2922,16.7720992
2923,16.84381029
2924,16.90396486
2925,16.75188911
2926,16.87077627
2927,16.80060225
2928,16.78749864
2929,16.67528445
2930,16.76835865
2931,16.86036135
2932,16.79889834
2933,16.92772547
2934,16.82320069
2935,16.85313396
2936,16.78768394
2937,16.83708339
2938,16.86201862
2939,16.7635041
2940,16.79718826
2941,16.7925149
2942,16.74925096
2943,16.78908705
2944,16.76613347
2945,16.83367856
2946,16.80340077
2947,16.77219872
2948,16.78719686
2949,16.78212514
2950,16.92578806
2951,16.86864511
2952,16.87995305
2953,16.77406885
2954,16.90284277
2955,16.91603776
2956,16.70820594
2957,16.78940354
2958,16.79763526
2959,16.74578704
2960,16.69451616
2961,16.8131869
2962,16.76799038
2963,16.86584505
2964,16.72369714
2965,16.8414751
2966,16.79512008
2967,16.7497064
2968,16.70255515
2969,16.85499949
2970,16.78228968
2971,16.77124072
2972,16.73761844
2973,16.79505427
2974,16.72518232
2975,16.82064365
2976,16.81607705
2977,16.86763538
2978,16.80509024
2979,16.77405703
2980,16.83478684
2981,16.76702982
2982,16.89999743
2983,16.96849507
2984,16.77986272
2985,16.77824703
2986,16.73383181
2987,16.75575856
2988,16.7374558
2989,16.78876042
2990,16.76062573
2991,16.77249944
2992,16.90400533
2993,16.8490356
2994,16.78339989
2995,16.7736095
2996,16.8084872
2997,16.82877679
2998,16.80728283
2999,16.77828035
3000,16.75118852
3001,16.83164254
3002,16.85779483
3003,16.81008433
3004,16.80264987
3005,16.76859768
3006,16.82510456
3007,16.76149643
3008,16.87692162
3009,16.68738223
3010,16.74447349
3011,16.89245484
3012,16.89753269
3013,16.80658025
3014,16.71251983
3015,16.68825118
3016,16.81695808
3017,16.76698348
3018,16.73430344
3019,16.78060927
3020,16.82010953
3021,16.72563022
3022,16.7914761
3023,16.74517353
3024,16.78445752
3025,16.83291681
3026,16.7765704
3027,16.84335783
3028,16.70339508
3029,16.82263283
3030,16.79283963
3031,16.91858548
3032,16.77533974
3033,16.82679594
3034,16.67761221
3035,16.86962936
3036,16.8248587
3037,16.74967477
3038,16.70106193
3039,16.81728015
3040,16.89418423
3041,16.8072334
3042,16.87906991
3043,16.81259668
3044,16.85513634
3045,16.7641451
3046,16.69933351
3047,16.84322445
3048,16.7088528
3049,16.82858281
3050,16.71505966
3051,16.72520259
3052,16.76006407
3053,16.70677596
3054,16.79028092
3055,16.76690538
3056,16.75244499
3057,16.87822141
3058,16.82328707
3059,16.75515445
3060,16.73224673
3061,16.87356388
3062,16.82711154
3063,16.83187726
3064,16.80933239
3065,16.7651504
3066,16.71392887
3067,16.74255056
3068,16.74548038
3069,16.84000571
3070,16.82227784
3071,16.7293557
3072,16.90506864
3073,16.7833714
3074,16.82273483
3075,16.92425095
3076,16.81937572
3077,16.73151313
3078,16.80613355
3079,16.85238754
3080,16.8032488
3081,16.73997545
3082,16.8005511
3083,16.84749414
3084,16.78498637
3085,16.69359704
3086,16.82083708
3087,16.7562072
3088,16.78291625
3089,16.81156174
3090,16.75262203
3091,16.80420788
3092,16.76111292
3093,16.8684068
3094,16.90045448
3095,16.75561469
3096,16.775532
3097,16.71921525
3098,16.84579647
3099,16.87535364
3100,16.78488173
3101,16.83830568
3102,16.77181827
3103,16.79348405
3104,16.92289396
3105,16.8116636
3106,16.89379051
3107,16.78445323
3108,16.83228791
3109,16.83492057
3110,16.79006853
3111,16.76016489
3112,16.82230591
3113,16.85958688
3114,16.80733269
3115,16.83122854
3116,16.92912745
3117,16.86502555
3118,16.83471045
3119,16.9020478
3120,16.78119891
3121,16.79959154
3122,16.78360619
3123,16.86370604
3124,16.73436046
3125,16.71088984
3126,16.8822732
3127,16.91440493
3128,16.77536747
3129,16.96855087
3130,16.81963086
3131,16.87176371
3132,16.85022365
3133,16.81621055
3134,16.89785189
3135,16.7766178
3136,16.94589496
3137,16.80251861
3138,16.78771799
3139,16.68920788
3140,16.79408403
3141,16.71545679
3142,16.77815087
3143,16.72596425
3144,16.81152858
3145,16.8116179
3146,16.77496011
3147,16.77853722
3148,16.88315642
3149,16.86183538
3150,16.80815426
3151,16.96051358
3152,16.81809283
3153,16.78081852
3154,16.73964579
3155,16.88203318
3156,16.73111547
3157,16.80182841
3158,16.88121221
3159,16.80623102
3160,16.8320389
3161,16.77585996
3162,16.80543325
3163,16.82587471
3164,16.84046567
3165,16.80471892
3166,16.74807074
3167,16.81098409
3168,16.69425718
3169,16.83348949
3170,16.76661255
3171,16.70632539
3172,16.76676764
3173,16.86089609
3174,16.7680059
3175,16.81095598
3176,16.79620497
3177,16.7200945
3178,16.73438005
3179,16.85063913
3180,16.8759172
3181,16.7259456
3182,16.93723245
3183,16.83637317
3184,16.92632687
3185,16.79787051
3186,16.82653622
3187,16.77854457
3188,16.87190582
3189,16.86592621
3190,16.77520607
3191,16.77873188
3192,16.7219646
3193,16.88276628
3194,16.84607312
3195,16.77124494
3196,16.78134625
3197,16.76983542
3198,16.77197999
3199,16.79070818
3200,16.69410842
3201,16.77904697
3202,16.83008949
3203,16.83994588
3204,16.84802265
3205,16.73811988
3206,16.80080462
3207,16.72555813
3208,16.69902498
3209,16.78781786
3210,16.81797917
3211,16.84648032
3212,16.92114472
3213,16.72381129
3214,16.76337199
3215,16.77190077
3216,16.85392327
3217,16.93436844
3218,16.6956531
3219,16.81866167
3220,16.74040056
3221,16.85131389
3222,16.7357614
3223,16.73527905
3224,16.91107915
3225,16.78505323
3226,16.865656
3227,16.83662628
3228,16.71072495
3229,16.8567456
3230,16.8011868
3231,16.74118862
3232,16.69432264
3233,16.82544878
3234,16.76360599
3235,16.77581383
3236,16.77214205
3237,16.80755478
3238,16.82532008
3239,16.82789051
3240,16.91360496
3241,16.84106421
3242,16.75474803
3243,16.89073443
3244,16.77728786
3245,16.80137165
3246,16.82425712
3247,16.62520547
3248,16.86063099
3249,16.77735637
3250,16.71940633
3251,16.77973967
3252,16.85166004
3253,16.91438053
3254,16.84527066
3255,16.82048118
3256,16.76347724
3257,16.83122612
3258,16.84428026
3259,16.7629575
3260,16.72026853
3261,16.83134968
3262,16.72447331
3263,16.86546119
3264,16.73506881
3265,16.80522207
3266,16.7399871
3267,16.8340351
3268,16.90106081
3269,16.79364441
3270,16.77907218
3271,16.81499269
3272,16.81796241
3273,16.78313623
3274,16.79349002
3275,16.85911999
3276,16.74313439
3277,16.83427146
3278,16.82271034
3279,16.82445715
3280,16.79764841
3281,16.78030526
3282,16.7725952
3283,16.89763368
3284,16.87212978
3285,16.65812612
3286,16.769532
3287,16.7201099
3288,16.69307471
3289,16.7805848
3290,16.7140326
3291,16.77291515
3292,16.80369443
3293,16.87242847
3294,16.67118186
3295,16.69937129
3296,16.83819827
3297,16.7833462
3298,16.88551896
3299,16.80276654
3300,16.83388213
3301,16.81646694
3302,16.81570717
3303,16.80244854
3304,16.87841588
3305,16.87523563
3306,16.88928751
3307,16.7571175
3308,16.95094339
3309,16.83218326
3310,16.642438
3311,16.79460345
3312,16.7613242
3313,16.71312389
3314,16.76568246
3315,16.84792388
3316,16.65532625
3317,16.74436997
3318,16.88269734
3319,16.87303567
3320,16.77416297
3321,16.75329216
3322,16.83726956
3323,16.8203394
3324,16.77747946
3325,16.7910168
3326,16.73529438
3327,16.65352088
3328,16.81982585
3329,16.77857732
3330,16.80334061
3331,16.85593647
3332,16.82090016
3333,16.75273141
3334,16.79617568
3335,16.87559226
3336,16.86022049
3337,16.74518499
3338,16.91036898
3339,16.76285537
3340,16.79626409
3341,16.65352914
3342,16.74148651
3343,16.82855446
3344,16.93003719
3345,16.81393333
3346,16.75024805
3347,16.76046962
3348,16.75337302
3349,16.77643114
3350,16.80517922
3351,16.8357552
3352,16.88151712
3353,16.75769451
3354,16.89031689
3355,16.70026742
3356,16.93021961
3357,16.78805518
3358,16.77606994
3359,16.85401272
3360,16.82447614
3361,16.82389869
3362,16.76828519
3363,16.81237752
3364,16.76558349
3365,16.76453494
3366,16.79075576
3367,16.87124944
3368,16.78962495
3369,16.76831292
3370,16.77926176
3371,16.74093481
3372,16.85351546
3373,16.87498187
3374,16.84692751
3375,16.70065694
3376,16.78853518
3377,16.74522307
3378,16.85725602
3379,16.83838189
3380,16.75499168
3381,16.77056107
3382,16.69514385
3383,16.85734251
3384,16.75895735
3385,16.85094105
3386,16.84080887
3387,16.86693715
3388,16.77120569
3389,16.83672092
3390,16.73744922
3391,16.76992929
3392,16.70356168
3393,16.76839921
3394,16.76043593
3395,16.65475342
3396,16.81343051
3397,16.78936286
3398,16.74022441
3399,16.82027646
3400,16.7706371
3401,16.79005385
3402,16.83123191
3403,16.73826212
3404,16.79427616
3405,16.73360117
3406,16.76252079
3407,16.84431279
3408,16.95382154
3409,16.7895458
3410,16.8860871
3411,16.90715131
3412,16.78342832
3413,16.79139241
3414,16.85404426
3415,16.77236897
3416,16.83395386
3417,16.91255445
3418,16.71541862
3419,16.77195577
3420,16.84992307
3421,16.75667537
3422,16.73932162
3423,16.74943419
3424,16.73786389
3425,16.79234757
3426,16.71130753
3427,16.77704802
3428,16.78865415
3429,16.80524174
3430,16.90015085
3431,16.81543567
3432,16.77150101
3433,16.75376898
3434,16.73460542
3435,16.77612291
3436,16.71884728
3437,16.85115395
3438,16.82200965
3439,16.77372326
3440,16.8147718
3441,16.89460263
3442,16.87101839
3443,16.74311606
3444,16.85715306
3445,16.75241963
3446,16.75474489
3447,16.85398126
3448,16.71569665
3449,16.77648295
3450,16.77510553
3451,16.67966305
3452,16.77624714
3453,16.80666985
3454,16.79926662
3455,16.79484104
3456,16.79875729
3457,16.84188762
3458,16.77183457
3459,16.72355169
3460,16.76339891
3461,16.86363571
3462,16.810681
3463,16.86313545
3464,16.83181886
3465,16.83405169
3466,16.77610089
3467,16.92907297
3468,16.85674971
3469,16.82132997
3470,16.82544464
3471,16.86171421
3472,16.80748597
3473,16.82651715
3474,16.90892472
3475,16.78312341
3476,16.79695681
3477,16.76432365
3478,16.77867611
3479,16.80822963
3480,16.8170487
3481,16.83323981
3482,16.76027268
3483,16.75175847
3484,16.86687863
3485,16.82332592
3486,16.78076139
3487,16.86471489
3488,16.7971001
3489,16.73735801
3490,16.76305579
3491,16.80866492
3492,16.71785373
3493,16.8076909
3494,16.92681586
3495,16.78594029
3496,16.77697157
3497,16.82533107
3498,16.82145244
3499,16.79651167
3500,16.82273239
3501,16.77695557
3502,16.71169914
3503,16.76145904
3504,16.73504117
3505,16.77174938
3506,16.85628053
3507,16.79176533
3508,16.78484802
3509,16.79577983
3510,16.7150149
3511,16.7884637
3512,16.85784928
3513,16.89623204
3514,16.77940011
3515,16.82597045
3516,16.74264522
3517,16.82474145
3518,16.9082216
3519,16.83796599
3520,16.70793487
3521,16.84861761
3522,16.73793657
3523,16.82145053
3524,16.85338318
3525,16.85830031
3526,16.7971791
3527,16.7828607
3528,16.89267143
3529,16.79898244
3530,16.79514584
3531,16.80940627
3532,16.85875168
3533,16.72029199
3534,16.74954899
3535,16.85914764
3536,16.85273375
3537,16.81617978
3538,16.80916859
3539,16.82149323
3540,16.77342513
3541,16.80138346
3542,16.75187258
3543,16.88702509
3544,16.90787177
3545,16.77777694
3546,16.77274403
3547,16.76099023
3548,16.92022538
3549,16.89443746
3550,16.79115113
3551,16.79623293
3552,16.77966176
3553,16.86221381
3554,16.79775086
3555,16.76609501
3556,16.74146026
3557,16.7866024
3558,16.91000384
3559,16.80291155
3560,16.82331558
3561,16.79966291
3562,16.8819062
3563,16.79709192
3564,16.88934608
3565,16.75938498
3566,16.81447074
3567,16.84321267
3568,16.77870452
3569,16.74846103
3570,16.79881436
3571,16.81474144
3572,16.79158016
3573,16.82860134
3574,16.94318281
3575,16.96227798
3576,16.84713797
3577,16.79060001
3578,16.8249141
3579,16.75577194
3580,16.71413738
3581,16.79051444
3582,16.76500609
3583,16.81369893
3584,16.77098524
3585,16.88823797
3586,16.91071259
3587,16.84808301
3588,16.85107644
3589,16.90489493
3590,16.77230645
3591,16.81377027
3592,16.79400125
3593,16.81521209
3594,16.76161667
3595,16.80028871
3596,16.73036222
3597,16.80213152
3598,16.84301466
3599,16.86444876
3600,16.84511053
3601,16.88072964
3602,16.81732422
3603,16.85579221
3604,16.92006451
3605,16.81666725
3606,16.70984458
3607,16.88322387
3608,16.73929923
3609,16.79674676
3610,16.80167175
3611,16.86969949
3612,16.84058386
3613,16.79468096
3614,16.89564641
3615,16.89039306
3616,16.84235182
3617,16.8384859
3618,16.7256258
3619,16.86321466
3620,16.86380395
3621,16.76976603
3622,16.74066949
3623,16.78945984
3624,16.85491374
3625,16.80820037
3626,16.8101449
3627,16.83410102
3628,16.79313717
3629,16.72413749
3630,16.776636
3631,16.87313808
3632,16.8001309
3633,16.74216517
3634,16.85957152
3635,16.87696584
3636,16.79216483
3637,16.69960647
3638,16.78128938
3639,16.6930172
3640,16.80070817
3641,16.71155061
3642,16.8202597
3643,16.77971873
3644,16.73074193
3645,16.80558801
3646,16.76577204
3647,16.79867611
3648,16.77830752
3649,16.88479606
3650,16.75900216
3651,16.75296401
3652,16.77443261
3653,16.87115992
3654,16.80553732
3655,16.83299063
3656,16.90451465
3657,16.82059604
3658,16.70176647
3659,16.87061298
3660,16.72797094
3661,16.71957301
3662,16.8165509
3663,16.80671706
3664,16.80254824
3665,16.84516677
3666,16.85159291
3667,16.76510207
3668,16.82921484
3669,16.7674639
3670,16.83685428
3671,16.80808554
3672,16.8561886
3673,16.78886016
3674,16.79411053
3675,16.86799577
3676,16.70420578
3677,16.85416508
3678,16.82203846
3679,16.73332647
3680,16.75240346
3681,16.7931992
3682,16.73425968
3683,16.85372469
3684,16.77166411
3685,16.84615262
3686,16.8304763
3687,16.74435813
3688,16.73623857
3689,16.7503377
3690,16.76884654
3691,16.7607166
3692,16.78708751
3693,16.75573432
3694,16.82970179
3695,16.80559422
3696,16.88713378
3697,16.83202739
3698,16.76716456
3699,16.93605197
3700,16.77582865
3701,16.82912116
3702,16.78398073
3703,16.85171873
3704,16.83278576
3705,16.76611
3706,16.82234323
3707,16.83216372
3708,16.73045323
3709,16.89010734
3710,16.80062309
3711,16.73950646
3712,16.86667938
3713,16.87509074
3714,16.80962363
3715,16.84394945
3716,16.68426044
3717,16.75674527
3718,16.77381195
3719,16.71437002
3720,16.7674073
3721,16.68857184
3722,16.81261063
3723,16.80745213
3724,16.74798349
3725,16.76613607
3726,16.70983848
3727,16.83249266
3728,16.78606277
3729,16.67340642
3730,16.89073724
3731,16.83569533
3732,16.8244999
3733,16.72115726
3734,16.8134184
3735,16.77815375
3736,16.72010094
3737,16.89728306
3738,16.8031571
3739,16.87125638
3740,16.93524056
3741,16.86402177
3742,16.76605991
3743,16.73704465
3744,16.89012652
3745,16.81343613
3746,16.797475
3747,16.77952559
3748,16.83124252
3749,16.76061364
3750,16.89075144
3751,16.78582222
3752,16.81662728
3753,16.74917796
3754,16.81022468
3755,16.78625393
3756,16.73126515
3757,16.89071025
3758,16.73978039
3759,16.78439833
3760,16.78300769
3761,16.83752443
3762,16.83559239
3763,16.76021699
3764,16.748743
3765,16.77079498
3766,16.77087289
3767,16.89746782
3768,16.81439171
3769,16.75966891
3770,16.88828317
3771,16.86325781
3772,16.76608799
3773,16.73753729
3774,16.71738507
3775,16.84718724
3776,16.80220356
3777,16.77759651
3778,16.75390146
3779,16.86039673
3780,16.89618652
3781,16.8145344
3782,16.66480363
3783,16.73007047
3784,16.77440889
3785,16.82654669
3786,16.74241297
3787,16.9080746
3788,16.80372735
3789,16.76034249
3790,16.73371362
3791,16.789442
3792,16.76565207
3793,16.88677249
3794,16.81922782
3795,16.75480827
3796,16.80308942
3797,16.83752539
3798,16.71554223
3799,16.80459934
3800,16.80257343
3801,16.74601898
3802,16.73522989
3803,16.84126466
3804,16.83863904
3805,16.86957165
3806,16.81988404
3807,16.66371748
3808,16.79189788
3809,16.70989099
3810,16.80112277
3811,16.79008568
3812,16.80364956
3813,16.80621823
3814,16.78673411
3815,16.73587755
3816,16.7082679
3817,16.79337159
3818,16.77686845
3819,16.8205915
3820,16.89464932
3821,16.71556289
3822,16.72448258
3823,16.84080232
3824,16.82869187
3825,16.81522869
3826,16.7072279
3827,16.7934196
3828,16.69256786
3829,16.77858306
3830,16.79165791
3831,16.82133413
3832,16.89006549
3833,16.88740354
3834,16.89237992
3835,16.80920152
3836,16.74230681
3837,16.83821786
3838,16.83911903
3839,16.72764609
3840,16.830345
3841,16.8046938
3842,16.73188111
3843,16.75362451
3844,16.8426601
3845,16.8233492
3846,16.70034253
3847,16.78935496
3848,16.76788424
3849,16.83844436
3850,16.77560837
3851,16.80558801
3852,16.74658388
3853,16.88269146
3854,16.83401503
3855,16.78840559
3856,16.85953632
3857,16.84159595
3858,16.8310921
3859,16.83546681
3860,16.67820581
3861,16.73262083
3862,16.81679952
3863,16.78683793
3864,16.82511684
3865,16.70438359
3866,16.88679847
3867,16.75507986
3868,16.76766947
3869,16.70689382
3870,16.75741414
3871,16.78296026
3872,16.67901771
3873,16.81252633
3874,16.80009609
3875,16.85086765
3876,16.75887607
3877,16.68979976
3878,16.77266805
3879,16.79013929
3880,16.87125592
3881,16.76603103
3882,16.89009494
3883,16.80201882
3884,16.78081592
3885,16.85573164
3886,16.8911166
3887,16.77904215
3888,16.81667275
3889,16.72129285
3890,16.84567527
3891,16.64385499
3892,16.89958129
3893,16.7861698
3894,16.85569726
3895,16.84812955
3896,16.73321702
3897,16.84079362
3898,16.79897773
3899,16.80989
3900,16.77528024
3901,16.8240847
3902,16.66149703
3903,16.79588582
3904,16.73959078
3905,16.72808804
3906,16.81611907
3907,16.81605051
3908,16.74309873
3909,16.81551593
3910,16.74308541
3911,16.91664342
3912,16.80767172
3913,16.8864856
3914,16.88283698
3915,16.88006974
3916,16.72983905
3917,16.78828775
3918,16.81011221
3919,16.8141628
3920,16.68796334
3921,16.84668632
3922,16.75047371
3923,16.72550191
3924,16.90502902
3925,16.71745925
3926,16.66590932
3927,16.73661233
3928,16.7386658
3929,16.83013967
3930,16.84491796
3931,16.81245312
3932,16.76805463
3933,16.79095206
3934,16.74632678
3935,16.76933309
3936,16.74250251
3937,16.75197942
3938,16.72029263
3939,16.7089552
3940,16.7101016
3941,16.69109378
3942,16.83514854
3943,16.86087807
3944,16.83373392
3945,16.79121884
3946,16.78304581
3947,16.76476936
3948,16.83610673
3949,16.76397298
3950,16.7967387
3951,16.84839861
3952,16.77465275
3953,16.79987996
3954,16.80824071
3955,16.78576252
3956,16.83995776
3957,16.79239746
3958,16.78163845
3959,16.80598353
3960,16.76842795
3961,16.83825555
3962,16.79684098
3963,16.79558667
3964,16.81819173
3965,16.72034873
3966,16.78734238
3967,16.81799438
3968,16.75241975
3969,16.80701452
3970,16.76849355
3971,16.77725166
3972,16.7602349
3973,16.91887763
3974,16.82172251
3975,16.7398776
3976,16.7660782
3977,16.76143474
3978,16.87001176
3979,16.75250146
3980,16.7394803
3981,16.75539418
3982,16.76252189
3983,16.86156913
3984,16.77627308
3985,16.7802151
3986,16.75001808
3987,16.75470495
3988,16.85516201
3989,16.84250671
3990,16.84924364
3991,16.72084105
3992,16.79769824
3993,16.81069751
3994,16.88675291
3995,16.86302488
3996,16.78518858
3997,16.81418254
3998,16.82168474
3999,16.70492836
4000,16.82405192
