Raman Shift,Intensity
91.55994,1382.08
92.04205,1401.274
92.52417,1428.968
93.00629,1458.87
93.4884,1481.056
93.97052,1485.848
94.45264,1469.718
94.93475,1452.05
95.41687,1434.23
95.89898,1416.795
96.3811,1400.534
96.86321,1386.341
97.34533,1373.628
97.82745,1359.201
98.30956,1345.235
98.79168,1331.721
99.2738,1319.052
99.75591,1306.95
100.238,1295.314
100.7201,1284.387
101.2023,1274.237
101.6844,1264.871
102.1665,1256.006
102.6486,1247.362
103.1307,1239.129
103.6128,1231.491
104.095,1224.336
104.5771,1217.722
105.0592,1211.169
105.5413,1204.816
106.0234,1199.134
106.5055,1194.518
106.9877,1190.682
107.4698,1186.657
107.9519,1183.031
108.434,1178.185
108.9161,1171.255
109.3982,1162.594
109.8804,1153.121
110.3625,1143.209
110.8446,1132.404
111.3267,1123.748
111.8088,1118.306
112.2909,1113.875
112.7731,1109.653
113.2552,1105.439
113.7373,1101.309
114.2194,1097.391
114.7015,1093.384
115.1836,1090.209
115.6658,1089.154
116.1479,1088.307
116.63,1085.51
117.1121,1079.904
117.5942,1072.805
118.0763,1067.398
118.5584,1064.232
119.0406,1061.107
119.5227,1057.106
120.0048,1052.614
120.4869,1048.695
120.969,1045.934
121.4511,1044.028
121.9333,1042.135
122.4154,1040.245
122.8975,1038.367
123.3796,1036.577
123.8617,1034.887
124.3438,1033.079
124.826,1031.364
125.3081,1029.357
125.7902,1026.465
126.2723,1022.203
126.7544,1017.323
127.2365,1013.612
127.7187,1011.598
128.2008,1009.966
128.6829,1008.721
129.165,1007.461
129.6471,1005.606
130.1292,1002.686
130.6114,998.8099
131.0935,995.5115
131.5756,993.2154
132.0577,991.1249
132.5398,989.4868
133.0219,987.9679
133.5041,985.8485
133.9862,982.3685
134.4683,977.1395
134.9504,973.1125
135.4325,970.674
135.9146,968.849
136.3968,967.226
136.8789,965.7117
137.361,964.2751
137.8431,962.8861
138.3252,961.5218
138.8073,960.3578
139.2895,959.5353
139.7716,958.8604
140.2537,958.3174
140.7358,958.0563
141.2179,957.3241
141.7,954.7525
142.1821,950.5297
142.6643,946.4152
143.1464,943.0358
143.6285,940.3229
144.1106,938.0455
144.5927,936.3724
145.0748,934.9155
145.557,933.2485
146.0391,931.3733
146.5212,929.5914
147.0033,928.2094
147.4854,927.2667
147.9675,926.3157
148.4497,925.3797
148.9318,924.3273
149.4139,923.04
149.896,921.5056
150.3781,919.8348
150.8602,918.1127
151.3424,915.9915
151.8245,914.6213
152.3066,914.6709
152.7887,915.0377
153.2708,914.7598
153.7529,913.4965
154.2351,911.7209
154.7172,910.626
155.1993,911.1813
155.6814,911.3026
156.1635,910.5939
156.6456,909.49
157.1278,908.609
157.6099,908.2881
158.092,908.2587
158.5741,907.3274
159.0562,904.4437
159.5383,901.9587
160.0205,900.5117
160.5026,899.894
160.9847,899.6395
161.4668,899.5331
161.9489,899.5745
162.431,899.7206
162.9131,900.5125
163.3953,900.9099
163.8774,899.9959
164.3595,897.9037
164.8416,895.9537
165.3237,894.9977
165.8058,894.7782
166.288,894.614
166.7701,894.4644
167.2522,894.3205
167.7343,894.2374
168.2164,894.2708
168.6985,894.1009
169.1807,893.2206
169.6628,892.0961
170.1449,891.3232
170.627,891.2494
171.1091,891.5919
171.5912,891.7726
172.0734,891.9587
172.5555,891.6114
173.0376,890.1064
173.5197,888.1113
174.0018,886.5839
174.4839,886.161
174.9661,886.6639
175.4482,887.0228
175.9303,887.3576
176.4124,887.3756
176.8945,886.7136
177.3766,885.7058
177.8588,884.9186
178.3409,884.774
178.823,885.2772
179.3051,885.8492
179.7872,886.6956
180.2693,887.4069
180.7515,887.7748
181.2336,887.8818
181.7157,887.9501
182.1978,888.169
182.6799,888.5549
183.162,888.8974
183.6441,889.5194
184.1263,889.8301
184.6084,889.3057
185.0905,888.0726
185.5726,886.8129
186.0547,886.1437
186.5368,886.1605
187.019,886.3269
187.5011,887.0185
187.9832,887.598
188.4653,887.5001
188.9474,886.6863
189.4296,885.6814
189.9117,884.987
190.3938,884.5994
190.8759,884.1187
191.358,882.9069
191.8401,881.8605
192.3223,882.4927
192.8044,885.3392
193.2865,887.9342
193.7686,886.9119
194.2507,883.4166
194.7328,880.9482
195.215,881.2744
195.6971,883.2225
196.1792,884.5019
196.6613,884.8016
197.1434,884.687
197.6255,884.6834
198.1077,884.6577
198.5898,884.2125
199.0719,882.649
199.554,880.3652
200.0361,879.1447
200.5182,879.507
201.0004,880.3553
201.4825,881.1747
201.9646,881.9581
202.4467,882.7031
202.9288,883.4064
203.4109,884.0724
203.893,884.7279
204.3752,885.537
204.8573,886.15
205.3394,886.3809
205.8215,886.309
206.3036,886.1121
206.7857,885.8507
207.2679,885.4995
207.75,885.603
208.2321,886.5555
208.7142,887.632
209.1963,888.914
209.6784,890.1737
210.1606,890.9149
210.6427,890.5733
211.1248,888.9468
211.6069,888.0511
212.089,887.9484
212.5711,888.4216
213.0533,889.8434
213.5354,891.8841
214.0175,893.6859
214.4996,894.4138
214.9817,893.8695
215.4638,893.6025
215.946,893.5037
216.4281,893.7013
216.9102,894.5234
217.3923,895.8078
217.8744,896.9056
218.3565,897.1477
218.8387,896.3813
219.3208,896.1882
219.8029,896.9146
220.285,897.8535
220.7671,898.5569
221.2492,899.0235
221.7314,899.555
222.2135,900.438
222.6956,901.6995
223.1777,902.8277
223.6598,903.7393
224.1419,904.5812
224.624,905.6321
225.1062,906.8708
225.5883,907.6658
226.0704,907.1677
226.5525,905.6268
227.0346,905.0451
227.5167,906.3119
227.9989,908.1133
228.481,909.3714
228.9631,910.0355
229.4452,910.1995
229.9273,909.3942
230.4094,908.1385
230.8916,907.8796
231.3737,909.7584
231.8558,912.2413
232.3379,913.5058
232.82,913.3988
233.3021,913.1356
233.7843,913.377
234.2664,913.9825
234.7485,914.8138
235.2306,916.0474
235.7127,917.3126
236.1948,917.9955
236.677,917.9264
237.1591,917.9979
237.6412,918.6119
238.1233,919.6465
238.6054,921.1981
239.0875,923.6897
239.5697,926.1403
240.0518,926.5721
240.5339,924.1188
241.016,922.4515
241.4981,923.5062
241.9802,925.7825
242.4624,928.0381
242.9445,929.8909
243.4266,931.4113
243.9087,932.6672
244.3908,933.5518
244.8729,934.4445
245.355,935.4612
245.8372,936.5165
246.3193,937.4999
246.8014,938.3652
247.2835,939.2513
247.7656,940.5018
248.2477,942.4308
248.7299,943.9367
249.212,944.5722
249.6941,944.9154
250.1762,945.3392
250.6583,945.9689
251.1404,946.7917
251.6226,947.841
252.1047,949.2947
252.5868,950.564
253.0689,951.6191
253.551,952.5002
254.0331,953.1344
254.5153,953.5429
254.9974,953.9667
255.4795,954.8019
255.9616,956.2641
256.4437,957.6971
256.9258,959.4504
257.408,960.9327
257.8901,961.6359
258.3722,961.5311
258.8543,961.0899
259.3364,960.9103
259.8185,960.9754
260.3007,961.3953
260.7828,962.7536
261.2649,963.9514
261.747,964.0127
262.2291,963.0135
262.7112,962.0032
263.1934,962.2557
263.6755,964.28
264.1576,965.7295
264.6397,966.3269
265.1218,966.6974
265.6039,967.0236
266.0861,967.4036
266.5682,967.9983
267.0503,969.001
267.5324,970.5006
268.0145,971.8256
268.4966,972.7969
268.9788,973.7919
269.4609,975.0914
269.943,976.6111
270.4251,978.0016
270.9072,978.9462
271.3893,979.416
271.8715,980.1462
272.3536,980.7922
272.8357,981.9578
273.3178,984.0854
273.7999,986.9703
274.282,990.1399
274.7642,993.3847
275.2463,996.632
275.7284,998.8381
276.2105,999.3987
276.6926,999.8504
277.1747,1000.296
277.6568,1001.015
278.1389,1002.729
278.6211,1006.011
279.1032,1010.326
279.5853,1013.341
280.0674,1013.747
280.5495,1014.677
281.0316,1017.447
281.5138,1021.207
281.9959,1024.311
282.478,1025.942
282.9601,1026.882
283.4422,1029.233
283.9243,1034.057
284.4065,1038.102
284.8886,1040.088
285.3707,1041.067
285.8528,1042.588
286.3349,1045.186
286.817,1048.328
287.2992,1051.12
287.7813,1053.354
288.2634,1055.933
288.7455,1059.577
289.2276,1063.395
289.7097,1066.079
290.1919,1067.298
290.674,1068.146
291.1561,1070.029
291.6382,1073.1
292.1203,1075.976
292.6024,1078.26
293.0846,1080.437
293.5667,1083.128
294.0488,1086.408
294.5309,1089.574
295.013,1092.014
295.4951,1093.669
295.9773,1094.963
296.4594,1095.136
296.9415,1095.501
297.4236,1097.399
297.9057,1100.728
298.3878,1104.044
298.87,1106.516
299.3521,1108.027
299.8342,1108.683
300.3163,1107.618
300.7984,1106.495
301.2805,1106.334
301.7627,1106.984
302.2448,1107.684
302.7269,1107.989
303.209,1108.13
303.6911,1108.806
304.1732,1110.36
304.6554,1111.85
305.1375,1113.164
305.6196,1114.126
306.1017,1114.128
306.5838,1112.728
307.0659,1110.67
307.5481,1109.366
308.0302,1108.839
308.5123,1108.663
308.9944,1108.72
309.4765,1109.037
309.9586,1109.81
310.4408,1111.189
310.9229,1112.574
311.405,1113.014
311.8871,1112.489
312.3692,1112.11
312.8513,1112.589
313.3335,1113.09
313.8156,1112.289
314.2977,1109.939
314.7798,1107.677
315.2619,1107.235
315.744,1108.482
316.2262,1109.094
316.7083,1108.362
317.1904,1107.295
317.6725,1106.714
318.1546,1106.624
318.6367,1106.625
319.1188,1106.498
319.601,1106.235
320.0831,1105.864
320.5652,1105.088
321.0473,1104.501
321.5294,1104.644
322.0115,1105.306
322.4937,1105.755
322.9758,1105.667
323.4579,1105.13
323.94,1104.343
324.4221,1103.162
324.9042,1102.086
325.3864,1101.336
325.8685,1100.806
326.3506,1100.244
326.8327,1099.531
327.3148,1098.911
327.7969,1098.863
328.2791,1099.488
328.7612,1099.975
329.2433,1100.081
329.7254,1100.022
330.2075,1100.086
330.6896,1100.323
331.1718,1100.499
331.6539,1100.359
332.136,1099.872
332.6181,1099.385
333.1002,1098.805
333.5823,1098.307
334.0645,1098.011
334.5466,1097.918
335.0287,1097.969
335.5108,1098.109
335.9929,1098.363
336.475,1098.837
336.9572,1100.121
337.4393,1100.985
337.9214,1100.51
338.4035,1099.201
338.8856,1098.325
339.3677,1098.531
339.8499,1099.374
340.332,1099.66
340.8141,1099.19
341.2962,1098.619
341.7783,1097.938
342.2604,1097.269
342.7426,1096.749
343.2247,1096.421
343.7068,1096.322
344.1889,1096.602
344.671,1097.648
345.1531,1097.82
345.6353,1096.411
346.1174,1094.614
346.5995,1093.281
347.0816,1092.507
347.5637,1091.983
348.0458,1091.476
348.528,1090.988
349.0101,1090.446
349.4922,1090.073
349.9743,1089.448
350.4564,1088.307
350.9385,1086.779
351.4207,1085.177
351.9028,1083.703
352.3849,1082.275
352.867,1080.494
353.3491,1077.352
353.8312,1075.115
354.3134,1074.676
354.7955,1075.044
355.2776,1075.276
355.7597,1075.009
356.2418,1074.062
356.7239,1072.02
357.2061,1067.813
357.6882,1064.709
358.1703,1063.625
358.6524,1062.84
359.1345,1061.189
359.6166,1058.584
360.0987,1055.618
360.5808,1052.796
361.063,1050.083
361.5451,1047.837
362.0272,1046.713
362.5093,1045.349
362.9914,1043.339
363.4735,1040.741
363.9557,1037.629
364.4378,1033.966
364.9199,1030.054
365.402,1027.246
365.8841,1027.064
366.3662,1025.897
366.8484,1022.741
367.3305,1018.77
367.8126,1015.136
368.2947,1012.219
368.7768,1009.552
369.2589,1006.336
369.7411,1002.241
370.2232,998.5174
370.7053,995.1331
371.1874,992.1468
371.6695,989.8602
372.1516,988.0871
372.6338,986.1271
373.1159,983.389
373.598,979.8912
374.0801,976.0519
374.5622,971.6185
375.0443,967.1132
375.5265,962.4174
376.0086,957.8205
376.4907,953.8604
376.9728,950.8707
377.4549,948.423
377.937,945.5699
378.4192,942.2312
378.9013,938.7065
379.3834,934.9623
379.8655,931.1373
380.3476,927.2729
380.8297,923.3836
381.3119,919.6262
381.794,916.1411
382.2761,912.924
382.7582,910.0654
383.2403,907.8125
383.7224,905.6624
384.2046,903.3613
384.6867,900.8963
385.1688,898.1664
385.6509,895.0956
386.133,891.75
386.6151,888.1306
387.0973,884.09
387.5794,880.3318
388.0615,877.282
388.5436,874.7535
389.0257,872.6363
389.5078,871.2389
389.99,869.6352
390.4721,866.6804
390.9542,862.5711
391.4363,859.0473
391.9184,856.9668
392.4005,855.3538
392.8827,852.6606
393.3648,848.776
393.8469,845.392
394.329,843.6527
394.8111,842.6817
395.2932,841.0671
395.7754,838.5572
396.2575,835.8536
396.7396,833.5135
397.2217,831.5323
397.7038,829.5994
398.1859,827.6961
398.6681,825.8259
399.1501,824.0928
399.6323,822.415
400.1144,820.4462
400.5965,817.9314
401.0786,815.1425
401.5607,812.9374
402.0428,811.571
402.525,810.2191
403.0071,808.6733
403.4892,807.0916
403.9713,805.7726
404.4534,804.7576
404.9355,803.6364
405.4177,801.8971
405.8998,799.3979
406.3819,797.0023
406.864,794.1922
407.3461,791.9639
407.8282,791.2917
408.3104,791.6262
408.7925,791.6327
409.2746,790.4785
409.7567,788.3254
410.2388,785.8962
410.7209,782.7943
411.2031,779.9357
411.6852,777.3408
412.1673,775.0441
412.6494,773.1241
413.1315,771.5774
413.6136,770.2446
414.0958,768.9409
414.5779,767.678
415.06,766.3751
415.5421,765.3946
416.0242,764.0358
416.5063,761.776
416.9885,758.8917
417.4706,756.0717
417.9527,753.709
418.4348,751.7532
418.9169,750.0686
419.399,748.9106
419.8812,747.4711
420.3633,745.1989
420.8454,742.7218
421.3275,740.776
421.8096,739.562
422.2917,738.2084
422.7739,735.5306
423.256,731.6204
423.7381,728.3962
424.2202,726.4266
424.7023,724.8283
425.1844,722.9394
425.6666,720.8206
426.1487,718.6774
426.6308,716.8445
427.1129,714.9179
427.595,712.072
428.0771,708.2165
428.5593,704.7189
429.0414,702.5266
429.5235,701.0811
430.0056,699.0884
430.4877,696.3831
430.9698,693.5088
431.452,690.8087
431.9341,688.1354
432.4162,685.0189
432.8983,681.2857
433.3804,677.6381
433.8625,674.9792
434.3447,673.4761
434.8268,671.7422
435.3089,669.8251
435.791,667.5821
436.2731,664.6268
436.7552,661.2111
437.2374,658.2081
437.7195,656.2048
438.2016,654.8377
438.6837,652.7547
439.1658,649.1474
439.6479,645.8429
440.1301,642.9686
440.6122,640.457
441.0943,638.5974
441.5764,637.2842
442.0585,635.5911
442.5406,632.2585
443.0227,626.8556
443.5049,622.9349
443.987,621.9236
444.4691,620.9519
444.9512,619.2021
445.4333,616.9056
445.9154,614.4911
446.3976,612.1776
446.8797,609.9526
447.3618,607.8326
447.8439,605.9186
448.326,603.8047
448.8081,601.2415
449.2903,598.563
449.7724,595.8596
450.2545,593.1873
450.7366,590.745
451.2187,588.9259
451.7008,587.5088
452.183,585.5078
452.6651,582.6613
453.1472,579.8601
453.6293,577.7277
454.1114,575.9481
454.5935,574.1033
455.0757,572.1129
455.5578,570.0394
456.0399,567.9097
456.522,565.7343
457.0041,563.4613
457.4862,560.9698
457.9684,558.6027
458.4505,557.0792
458.9326,556.4207
459.4147,555.0511
459.8968,552.1301
460.3789,548.7985
460.8611,545.9332
461.3432,543.5771
461.8253,541.592
462.3074,539.9673
462.7895,538.561
463.2716,536.7241
463.7538,533.9392
464.2359,531.4332
464.718,529.5286
465.2001,527.8442
465.6822,525.9503
466.1643,523.7789
466.6465,521.6384
467.1286,519.8781
467.6107,518.5204
468.0928,517.1726
468.5749,515.972
469.057,514.6224
469.5392,512.8817
470.0213,510.9837
470.5034,509.3813
470.9855,508.2933
471.4676,507.2548
471.9497,505.2922
472.4319,502.0965
472.914,499.3467
473.3961,497.1124
473.8782,495.6023
474.3603,495.4455
474.8424,496.2759
475.3246,496.666
475.8067,495.423
476.2888,493.2964
476.7709,492.0153
477.253,491.7446
477.7351,491.2952
478.2173,489.8263
478.6994,488.0125
479.1815,486.9531
479.6636,486.8597
480.1457,486.9015
480.6278,486.9007
481.11,486.6934
481.592,485.8718
482.0742,484.3428
482.5563,482.6515
483.0384,481.2547
483.5205,480.1572
484.0026,479.0389
484.4847,478.0492
484.9669,476.8799
485.449,475.19
485.9311,473.2722
486.4132,471.6168
486.8953,470.4015
487.3774,469.5424
487.8596,469.0364
488.3417,469.5368
488.8238,468.5066
489.3059,464.5117
489.788,460.6261
490.2701,458.5361
490.7523,457.7734
491.2344,457.0566
491.7165,455.6477
492.1986,453.7041
492.6807,451.6143
493.1628,449.3258
493.645,447.0546
494.1271,445.0214
494.6092,442.9086
495.0913,440.3776
495.5734,437.4755
496.0555,434.6886
496.5377,432.532
497.0198,430.7501
497.5019,428.5682
497.984,425.8459
498.4661,423.3033
498.9482,421.3426
499.4304,419.8037
499.9125,418.3688
500.3946,417.0347
500.8767,415.7625
501.3588,414.5179
501.8409,413.3186
502.3231,412.2988
502.8052,411.4957
503.2873,410.4065
503.7694,408.399
504.2515,405.415
504.7336,403.3838
505.2158,402.893
505.6979,402.5816
506.18,402.0466
506.6621,401.3546
507.1442,400.6237
507.6263,399.9005
508.1085,399.211
508.5906,398.6467
509.0727,398.3481
509.5548,397.6566
510.0369,395.9247
510.519,394.4469
511.0012,393.9046
511.4833,393.9504
511.9654,393.856
512.4475,393.2221
512.9296,392.3987
513.4117,392.1735
513.8939,392.6977
514.376,392.6043
514.8581,391.025
515.3402,389.3066
515.8223,388.711
516.3044,389.0754
516.7866,389.2437
517.2687,388.6645
517.7508,387.6658
518.2329,386.4786
518.715,385.1512
519.1971,384.2134
519.6793,383.9947
520.1614,384.22
520.6435,384.3363
521.1256,384.451
521.6077,384.1966
522.0898,383.3377
522.572,382.2063
523.0541,380.9825
523.5362,379.7492
524.0183,378.6262
524.5004,377.6884
524.9825,376.9608
525.4647,376.5859
525.9468,377.132
526.4289,377.2122
526.911,376.2319
527.3931,375.0938
527.8752,374.6652
528.3574,374.9513
528.8395,375.1953
529.3216,374.6801
529.8037,373.5379
530.2858,372.5505
530.7679,371.7365
531.2501,371.0428
531.7322,370.3924
532.2143,369.8804
532.6964,369.6844
533.1785,369.8832
533.6606,370.0301
534.1428,369.8429
534.6249,369.3931
535.107,368.8202
535.5891,368.1397
536.0712,367.3432
536.5533,366.3712
537.0355,365.2736
537.5176,364.3744
537.9997,363.6892
538.4818,363.1592
538.9639,362.886
539.446,362.7025
539.9282,362.4585
540.4103,362.0981
540.8924,361.5085
541.3745,360.4976
541.8566,359.0378
542.3387,358.1188
542.8209,358.3439
543.3029,358.4149
543.785,357.9513
544.2672,357.2603
544.7493,356.6994
545.2314,356.3629
545.7135,356.0887
546.1956,355.7222
546.6777,355.2659
547.1599,354.7477
547.642,354.1253
548.1241,353.5375
548.6062,352.916
549.0883,352.4222
549.5704,352.45
550.0526,353.4369
550.5347,354.1562
551.0168,353.6364
551.4989,352.3315
551.981,351.0798
552.4631,350.0478
552.9453,349.3595
553.4274,349.2157
553.9095,349.6185
554.3916,349.703
554.8737,349.4141
555.3558,348.9243
555.838,348.2233
556.3201,347.3706
556.8022,346.3033
557.2843,345.0643
557.7664,344.0499
558.2485,343.7946
558.7307,344.3343
559.2128,344.6337
559.6949,344.5382
560.177,344.413
560.6591,344.5859
561.1412,344.7147
561.6234,344.2775
562.1055,343.0956
562.5876,341.8863
563.0697,341.2702
563.5518,341.1311
564.0339,341.1329
564.5161,341.2748
564.9982,341.3609
565.4803,341.2292
565.9624,340.9209
566.4445,340.6594
566.9266,340.6233
567.4088,340.381
567.8909,339.5704
568.373,338.5743
568.8551,337.8639
569.3372,337.5223
569.8193,337.3607
570.3015,337.2299
570.7836,337.1232
571.2657,336.9282
571.7478,336.536
572.2299,336.1979
572.712,336.1023
573.1942,335.9806
573.6763,335.5268
574.1584,334.7224
574.6405,333.879
575.1226,333.2296
575.6047,332.7603
576.0869,332.4163
576.569,332.1968
577.0511,332.1256
577.5332,332.4589
578.0153,332.7978
578.4974,332.4082
578.9796,331.0497
579.4617,330.0024
579.9438,330.1136
580.4259,330.5727
580.908,330.3665
581.3901,329.5115
581.8723,328.7178
582.3544,328.4491
582.8365,328.544
583.3186,328.4527
583.8007,328.1025
584.2828,327.665
584.765,327.1025
585.2471,326.4953
585.7292,325.7631
586.2113,325.0225
586.6934,324.6153
587.1755,324.8547
587.6577,325.3735
588.1398,325.2763
588.6219,324.4668
589.104,323.6764
589.5861,322.9843
590.0682,322.4755
590.5504,322.4115
591.0325,322.68
591.5146,322.5265
591.9967,321.055
592.4788,319.6339
592.9609,319.7785
593.4431,320.9704
593.9252,321.5858
594.4073,321.013
594.8894,319.9134
595.3715,319.1804
595.8536,318.8683
596.3358,318.694
596.8179,318.846
597.3,318.9064
597.7821,318.6583
598.2642,318.2518
598.7463,317.9361
599.2285,317.7899
599.7106,317.6232
600.1927,317.0958
600.6748,316.2298
601.1569,315.7557
601.639,315.8317
602.1212,316.0298
602.6033,316.2858
603.0854,316.452
603.5675,316.2107
604.0496,315.3406
604.5317,314.6107
605.0139,314.4416
605.496,314.634
605.9781,315.0784
606.4602,315.6875
606.9423,315.9383
607.4244,315.3871
607.9066,314.2492
608.3887,313.4927
608.8708,313.5246
609.3529,313.3745
609.835,312.797
610.3171,312.2042
610.7993,311.8747
611.2814,311.8023
611.7635,311.8549
612.2456,311.9819
612.7277,312.1279
613.2098,312.2557
613.692,312.3949
614.1741,312.0952
614.6562,310.9699
615.1383,309.7293
615.6204,309.0556
616.1025,308.8813
616.5847,308.9146
617.0668,309.4596
617.5489,309.8343
618.031,309.3955
618.5131,308.5056
618.9952,307.9029
619.4774,307.8062
619.9595,307.945
620.4416,308.0128
620.9237,308.0042
621.4058,308.0258
621.8879,308.3957
622.3701,308.3882
622.8522,307.5589
623.3343,306.4561
623.8164,305.6628
624.2985,305.2829
624.7806,304.9649
625.2628,304.4007
625.7448,303.6872
626.2269,303.0348
626.709,302.4326
627.1912,302.0892
627.6733,302.1672
628.1554,302.4922
628.6375,302.7715
629.1196,303.0287
629.6017,303.155
630.0839,303.0694
630.566,302.9048
631.0481,302.7406
631.5302,302.5724
632.0123,302.3268
632.4944,301.9701
632.9766,301.6612
633.4587,301.7875
633.9408,302.547
634.4229,302.701
634.905,301.8557
635.3871,300.88
635.8693,299.9307
636.3514,299.1806
636.8335,299.0179
637.3156,299.6943
637.7977,300.2297
638.2798,299.6906
638.762,298.6033
639.2441,297.942
639.7262,297.8187
640.2083,297.9339
640.6904,298.1602
641.1725,298.407
641.6547,298.3683
642.1368,297.8018
642.6189,297.2911
643.101,296.7251
643.5831,296.3113
644.0652,296.2767
644.5474,296.5005
645.0295,296.6807
645.5116,296.6617
645.9937,296.5129
646.4758,296.3377
646.9579,296.1362
647.4401,295.8798
647.9222,295.5382
648.4043,295.1994
648.8864,294.8849
649.3685,294.63
649.8506,294.5688
650.3328,294.9395
650.8149,295.1559
651.297,294.8716
651.7791,294.3747
652.2612,293.9443
652.7433,293.6492
653.2255,293.5351
653.7076,293.6521
654.1897,293.9385
654.6718,294.1973
655.1539,294.5216
655.636,294.584
656.1182,293.888
656.6003,293.3028
657.0824,293.4839
657.5645,294.1904
658.0466,294.6424
658.5287,294.4914
659.0109,294.0653
659.493,293.5916
659.9751,293.092
660.4572,292.6114
660.9393,292.1592
661.4214,291.7627
661.9036,291.4274
662.3857,291.166
662.8678,291.1115
663.3499,291.7122
663.832,291.9273
664.3141,291.3413
664.7963,290.5919
665.2784,290.0952
665.7605,289.912
666.2426,290.0183
666.7247,290.5211
667.2068,291.1007
667.689,291.0679
668.1711,290.4464
668.6532,290.0736
669.1353,290.1916
669.6174,290.4748
670.0995,290.7359
670.5817,290.9287
671.0638,290.7258
671.5459,289.5079
672.028,288.6478
672.5101,288.7991
672.9922,289.4004
673.4744,289.9866
673.9565,290.4053
674.4386,290.5049
674.9207,290.1059
675.4028,289.4106
675.8849,289.0868
676.3671,289.1969
676.8492,289.4245
677.3313,289.9227
677.8134,290.2752
678.2955,290.0204
678.7776,289.3377
679.2598,288.8761
679.7419,288.9483
680.224,289.0651
680.7061,288.9363
681.1882,288.6685
681.6703,288.4049
682.1525,288.1815
682.6346,287.9809
683.1167,287.7613
683.5988,287.5884
684.0809,287.8544
684.563,288.9995
685.0452,289.6196
685.5273,288.6588
686.0094,287.888
686.4915,288.7675
686.9736,290.7162
687.4557,291.8888
687.9379,291.3371
688.42,290.2412
688.9021,289.5016
689.3842,289.0388
689.8663,288.6995
690.3484,288.4507
690.8306,288.2478
691.3127,288.031
691.7948,287.8472
692.2769,287.9354
692.759,288.4735
693.2411,289.0135
693.7233,289.7177
694.2054,290.2537
694.6875,290.3999
695.1696,290.2166
695.6517,289.8185
696.1339,289.1388
696.616,288.6349
697.0981,289.0143
697.5802,290.0083
698.0623,290.6529
698.5444,290.7868
699.0266,290.7686
699.5087,290.8318
699.9908,290.9437
700.4729,290.9854
700.955,290.9955
701.4371,290.862
701.9193,290.2573
702.4014,289.808
702.8835,290.1321
703.3656,290.8779
703.8477,291.2634
704.3298,290.9411
704.812,290.2754
705.2941,289.6154
705.7762,288.9852
706.2583,288.5421
706.7404,288.3407
707.2225,288.0598
707.7046,287.4872
708.1867,286.7264
708.6688,286.0085
709.1509,285.229
709.6331,284.7501
710.1152,284.8433
710.5973,284.9959
711.0794,284.9348
711.5615,284.7051
712.0436,284.3959
712.5258,284.0417
713.0079,283.7356
713.49,283.4925
713.9721,283.3664
714.4542,283.8886
714.9363,285.2782
715.4185,285.904
715.9006,284.5234
716.3827,282.4833
716.8648,282.4139
717.3469,284.8774
717.829,285.7559
718.3112,283.1606
718.7933,280.5568
719.2754,279.7989
719.7575,280.0668
720.2396,280.0923
720.7217,279.5403
721.2039,278.8676
721.686,278.4679
722.1681,278.3193
722.6502,278.4625
723.1323,278.9818
723.6144,279.0346
724.0966,278.0755
724.5787,276.9651
725.0608,276.8213
725.5429,277.6206
726.025,278.1172
726.5071,278.0967
726.9893,277.9486
727.4714,277.6784
727.9535,277.436
728.4356,277.4389
728.9177,277.6681
729.3998,277.9046
729.882,278.0295
730.3641,277.98
730.8462,277.4331
731.3283,276.3541
731.8104,275.875
732.2925,276.4221
732.7747,277.1186
733.2568,277.2257
733.7389,276.8611
734.221,276.7046
734.7031,276.9953
735.1852,277.1194
735.6674,276.762
736.1495,276.341
736.6316,276.2769
737.1137,276.4556
737.5958,276.4286
738.0779,275.9501
738.5601,275.4021
739.0422,275.4903
739.5243,276.1138
740.0064,276.189
740.4885,275.4869
740.9706,274.9199
741.4528,275.0998
741.9349,275.6649
742.417,275.769
742.8991,275.2197
743.3812,274.9243
743.8633,275.2624
744.3455,275.5551
744.8276,275.3683
745.3097,274.9312
745.7918,274.5758
746.2739,274.4135
746.756,274.4384
747.2382,274.7267
747.7203,275.1855
748.2024,275.5871
748.6845,275.937
749.1666,275.9557
749.6487,275.4222
750.1309,274.8364
750.613,274.806
751.0951,275.3664
751.5772,275.8502
752.0593,276.412
752.5414,276.6971
753.0236,276.1343
753.5057,275.6138
753.9878,276.1699
754.4699,277.6065
754.952,278.7844
755.4341,279.0078
755.9163,278.7813
756.3984,278.7465
756.8805,278.8689
757.3626,278.9931
757.8447,279.0907
758.3268,279.203
758.809,279.2521
759.2911,279.4485
759.7732,280.5521
760.2553,283.7714
760.7374,285.6952
761.2195,285.6323
761.7017,285.1059
762.1838,284.5367
762.6659,284.0923
763.148,283.8985
763.6301,283.9861
764.1122,284.479
764.5944,285.682
765.0765,287.2372
765.5586,288.5513
766.0407,289.6662
766.5228,290.9215
767.0049,292.4548
767.4871,294.1265
767.9692,295.7439
768.4513,297.312
768.9334,298.9186
769.4155,300.5287
769.8976,302.2408
770.3798,304.2197
770.8619,306.1906
771.344,307.8011
771.8261,309.1497
772.3082,310.7887
772.7903,313.1497
773.2725,315.5338
773.7546,317.4484
774.2367,319.0649
774.7188,320.578
775.2009,322.0562
775.683,323.6353
776.1652,325.4317
776.6473,327.3041
777.1294,328.9682
777.6115,330.4681
778.0936,331.4396
778.5757,331.5389
779.0579,331.7064
779.54,332.6187
780.0221,333.8446
780.5042,334.6432
780.9863,334.9268
781.4684,335.1506
781.9506,335.6985
782.4327,335.9461
782.9148,335.2611
783.3969,334.0794
783.879,333.1576
784.3611,332.6758
784.8433,332.2432
785.3254,331.4878
785.8075,330.5141
786.2896,329.6181
786.7717,328.8022
787.2538,328.1197
787.736,327.6334
788.2181,327.1549
788.7002,326.6161
789.1823,325.9616
789.6644,324.7341
790.1465,322.2387
790.6286,320.1915
791.1107,319.1672
791.5928,318.214
792.075,316.5126
792.5571,314.433
793.0392,312.8754
793.5213,312.2138
794.0034,311.7082
794.4855,310.6994
794.9677,309.4086
795.4498,308.1985
795.9319,307.0983
796.414,306.2006
796.8961,305.5544
797.3782,304.9447
797.8604,304.0109
798.3425,302.7097
798.8246,302.0744
799.3067,302.7462
799.7888,302.9146
800.2709,301.7415
800.7531,300.2059
801.2352,299.0189
801.7173,298.12
802.1994,297.0983
802.6815,295.7025
803.1636,294.375
803.6458,293.3253
804.1279,292.4965
804.61,291.9221
805.0921,291.5171
805.5742,291.0233
806.0563,290.3032
806.5385,289.4762
807.0206,288.6408
807.5027,287.8228
807.9848,287.5242
808.4669,287.9179
808.949,288.0103
809.4312,287.2408
809.9133,286.115
810.3954,285.4245
810.8775,285.2852
811.3596,284.8093
811.8417,283.5713
812.3239,282.5465
812.806,282.2475
813.2881,282.1042
813.7702,281.4674
814.2523,280.4322
814.7344,279.6774
815.2166,279.6304
815.6987,279.8032
816.1808,279.8126
816.6629,279.6291
817.145,279.0479
817.6271,278.1167
818.1093,277.4113
818.5914,277.2797
819.0735,277.4373
819.5556,277.3257
820.0377,276.8868
820.5198,276.522
821.002,276.2129
821.4841,276.0056
821.9662,276.0784
822.4483,276.1464
822.9304,275.8476
823.4125,275.1938
823.8947,274.6204
824.3768,274.309
824.8589,273.9866
825.341,273.6078
825.8231,273.11
826.3052,272.2855
826.7874,271.2591
827.2695,270.4952
827.7516,270.2717
828.2337,270.3242
828.7158,270.2919
829.1979,270.2117
829.6801,270.3564
830.1622,270.752
830.6443,270.7225
831.1264,269.8565
831.6085,268.5985
832.0906,267.6346
832.5728,266.963
833.0549,266.6208
833.537,266.8593
834.0191,267.0684
834.5012,267.0591
834.9833,267.0092
835.4655,267.1627
835.9476,267.4371
836.4297,267.4026
836.9118,266.7684
837.3939,266.0625
837.876,265.5254
838.3582,265.1021
838.8403,264.7198
839.3224,264.3889
839.8045,264.187
840.2866,264.1522
840.7687,264.1703
841.2509,264.1528
841.733,264.0668
842.2151,263.6123
842.6972,262.7504
843.1793,262.139
843.6614,262.0559
844.1436,262.2061
844.6257,262.2795
845.1078,262.2749
845.5899,262.1939
846.072,262.0633
846.5541,261.8062
847.0363,261.2523
847.5184,260.7242
848.0005,260.444
848.4826,260.3391
848.9647,260.1968
849.4468,259.9196
849.929,259.8002
850.4111,260.2305
850.8932,260.71
851.3753,260.751
851.8574,260.4182
852.3395,259.8256
852.8217,259.0632
853.3038,258.4619
853.7859,258.3989
854.268,258.7123
854.7501,258.9621
855.2322,259.1499
855.7144,259.0264
856.1965,258.4633
856.6786,257.9443
857.1607,257.8896
857.6428,258.1096
858.1249,257.9693
858.6071,257.1176
859.0892,256.6682
859.5713,257.005
860.0534,257.2806
860.5355,257.14
861.0176,256.8063
861.4998,256.5495
861.9819,256.3987
862.464,256.2399
862.9461,256.0037
863.4282,255.7667
863.9103,255.5768
864.3925,255.4222
864.8746,255.2497
865.3567,255.0872
865.8388,255.1322
866.3209,255.5401
866.803,255.896
867.2852,255.3957
867.7673,254.2393
868.2494,253.5092
868.7315,253.279
869.2136,253.1712
869.6957,253.0701
870.1779,252.8682
870.66,252.3596
871.1421,251.5366
871.6242,251.1948
872.1063,251.6203
872.5884,252.0222
873.0705,252.5856
873.5526,252.79
874.0347,251.9214
874.5168,250.4985
874.999,249.8437
875.4811,250.4638
875.9632,250.9568
876.4453,250.7642
876.9274,250.3384
877.4095,249.9531
877.8917,249.5949
878.3738,249.194
878.8559,248.7375
879.338,248.2646
879.8201,247.8068
880.3022,247.3488
880.7844,246.8174
881.2665,246.2598
881.7486,245.8216
882.2307,245.5323
882.7128,245.5289
883.1949,245.9553
883.6771,246.4762
884.1592,246.3766
884.6413,245.5921
885.1234,244.5894
885.6055,243.0914
886.0876,242.0788
886.5698,242.1445
887.0519,242.574
887.534,242.539
888.0161,242.0799
888.4982,241.8472
888.9803,242.1797
889.4625,242.2862
889.9446,241.6718
890.4267,241.1289
890.9088,241.4491
891.3909,242.189
891.873,242.3369
892.3552,241.5902
892.8373,240.9276
893.3194,241.248
893.8015,241.7352
894.2836,241.4226
894.7657,240.626
895.2479,240.0261
895.73,239.7723
896.2121,239.6805
896.6942,239.6437
897.1763,239.5847
897.6584,239.3563
898.1406,238.9618
898.6227,238.3613
899.1048,237.5197
899.5869,236.8376
900.069,236.4626
900.5511,236.475
901.0333,237.1225
901.5154,238.4693
901.9975,238.9552
902.4796,238.0395
902.9617,237.2705
903.4438,237.0814
903.926,236.9817
904.4081,236.6423
904.8902,236.137
905.3723,235.6714
905.8544,235.3109
906.3365,234.8704
906.8187,233.9243
907.3008,233.2905
907.7829,233.7991
908.265,234.751
908.7471,235.1325
909.2292,234.8344
909.7114,234.5421
910.1935,234.7856
910.6756,234.9985
911.1577,234.5336
911.6398,233.6527
912.1219,232.6572
912.6041,231.7074
913.0862,231.2819
913.5683,231.6099
914.0504,232.1348
914.5325,232.0913
915.0146,231.5838
915.4968,231.1546
915.9789,230.7997
916.461,230.7293
916.9431,231.0539
917.4252,231.4326
917.9073,231.643
918.3895,231.6356
918.8716,231.1827
919.3537,229.9411
919.8358,229.1169
920.3179,228.8576
920.8,228.8049
921.2822,228.9066
921.7643,229.0857
922.2464,229.3476
922.7285,229.671
923.2106,229.6773
923.6927,228.9137
924.1749,228.367
924.657,228.4543
925.1391,228.7366
925.6212,229.0456
926.1033,229.2298
926.5854,228.9803
927.0676,228.1945
927.5497,227.4795
928.0318,227.3805
928.5139,227.4221
928.996,227.0829
929.4781,226.5336
929.9603,226.0134
930.4424,225.6343
930.9245,225.6056
931.4066,226.0632
931.8887,226.9124
932.3708,228.2989
932.853,229.959
933.3351,230.8205
933.8172,230.8336
934.2993,230.1065
934.7814,228.625
935.2635,226.9485
935.7457,225.5954
936.2278,224.6387
936.7099,224.6929
937.192,226.1448
937.6741,226.8601
938.1563,226.3235
938.6384,225.6436
939.1205,225.4513
939.6026,225.4623
940.0847,225.1202
940.5668,224.3097
941.049,223.8362
941.5311,223.8763
942.0132,223.9986
942.4953,224.123
942.9774,224.3044
943.4595,224.7915
943.9417,225.3445
944.4238,225.2815
944.9059,224.2629
945.388,223.4337
945.8701,223.3797
946.3522,223.4515
946.8344,223.1408
947.3165,222.7366
947.7986,222.6371
948.2807,222.8914
948.7628,223.4037
949.2449,224.3382
949.7271,224.952
950.2092,224.2672
950.6913,222.9607
951.1734,221.9675
951.6555,221.3346
952.1376,220.8569
952.6198,220.4744
953.1019,220.374
953.584,220.8421
954.0661,221.585
954.5482,221.8593
955.0303,221.7318
955.5124,221.6413
955.9945,221.6489
956.4766,221.6567
956.9587,221.6184
957.4409,221.5002
957.923,221.1661
958.4051,220.6283
958.8872,220.871
959.3693,222.2139
959.8514,222.9116
960.3336,222.3662
960.8157,221.5917
961.2978,221.2512
961.7799,221.3023
962.262,221.6772
962.7441,222.6182
963.2263,223.1347
963.7084,223.1024
964.1905,222.8067
964.6726,221.9101
965.1547,221.1264
965.6368,221.2264
966.119,222.0133
966.6011,222.5066
967.0832,222.2651
967.5653,222.3811
968.0474,223.4264
968.5295,224.5237
969.0117,225.3686
969.4938,225.8473
969.9759,225.735
970.458,225.0882
970.9401,224.4176
971.4222,223.8554
971.9044,223.4771
972.3865,223.4565
972.8686,223.5455
973.3507,223.5017
973.8328,223.3392
974.3149,223.1627
974.7971,222.9979
975.2792,222.7477
975.7613,222.25
976.2434,221.7209
976.7255,221.5692
977.2076,221.5675
977.6898,221.1521
978.1719,220.3436
978.654,219.6273
979.1361,219.2296
979.6182,218.939
980.1003,218.4338
980.5825,217.8416
981.0646,217.7051
981.5467,217.9494
982.0288,217.9985
982.5109,217.7389
982.993,217.1013
983.4752,215.9828
983.9573,214.7405
984.4394,214.0787
984.9215,214.0019
985.4036,213.9869
985.8857,214.0841
986.3679,213.8798
986.85,213.1427
987.3321,212.4935
987.8142,212.5302
988.2963,212.9515
988.7784,212.7558
989.2606,211.646
989.7427,210.9934
990.2248,211.0517
990.7069,211.0747
991.189,210.783
991.6711,210.4137
992.1533,210.1587
992.6354,210.0188
993.1175,210.0083
993.5996,210.2663
994.0817,210.4048
994.5638,210.4578
995.046,210.3446
995.5281,209.8402
996.0102,209.2893
996.4923,209.0982
996.9744,209.2354
997.4565,209.3259
997.9387,209.2551
998.4208,209.2073
998.9029,209.3759
999.385,209.4261
999.8671,209.0019
1000.349,208.4021
1000.831,208.0794
1001.313,208.0709
1001.796,208.0394
1002.278,207.5738
1002.76,207.4702
1003.242,208.7367
1003.724,210.062
1004.206,210.0621
1004.688,209.2111
1005.17,208.6368
1005.653,208.5954
1006.135,208.4959
1006.617,207.8274
1007.099,207.1291
1007.581,206.979
1008.063,207.0729
1008.545,207.0002
1009.027,206.7679
1009.509,206.536
1009.992,206.3637
1010.474,206.2099
1010.956,205.9663
1011.438,205.8031
1011.92,206.032
1012.402,206.5283
1012.884,207.1764
1013.366,207.8281
1013.849,207.8947
1014.331,207.1335
1014.813,206.206
1015.295,205.8937
1015.777,205.9324
1016.259,205.5402
1016.741,204.876
1017.223,204.805
1017.705,205.3956
1018.188,205.8822
1018.67,205.8661
1019.152,205.6631
1019.634,205.7477
1020.116,206.0108
1020.598,205.9022
1021.08,205.4321
1021.562,204.7632
1022.044,203.8952
1022.527,203.3649
1023.009,203.4901
1023.491,204.0832
1023.973,204.9232
1024.455,205.9805
1024.937,206.7641
1025.419,207.2847
1025.901,207.3919
1026.384,207.0054
1026.866,206.4201
1027.348,205.7784
1027.83,205.1361
1028.312,204.5884
1028.794,204.129
1029.276,203.8687
1029.758,203.8717
1030.24,203.8302
1030.723,203.6171
1031.205,203.5227
1031.687,203.7872
1032.169,204.24
1032.651,204.5422
1033.133,204.6821
1033.615,204.764
1034.097,204.8321
1034.579,204.7195
1035.062,204.2073
1035.544,203.7908
1036.026,203.8601
1036.508,204.2106
1036.99,204.4335
1037.472,204.5264
1037.954,204.4882
1038.436,204.0752
1038.919,203.929
1039.401,204.4743
1039.883,204.9732
1040.365,204.777
1040.847,204.2578
1041.329,204.2282
1041.811,204.7966
1042.293,205.2834
1042.776,205.835
1043.258,206.087
1043.74,205.6648
1044.222,205.2324
1044.704,205.3366
1045.186,205.695
1045.668,205.6915
1046.15,205.2044
1046.632,204.9572
1047.115,205.2319
1047.597,205.4696
1048.079,205.4961
1048.561,205.4775
1049.043,205.4927
1049.525,205.5592
1050.007,205.7271
1050.489,206.0167
1050.971,206.2079
1051.454,206.1281
1051.936,206.12
1052.418,206.2627
1052.9,206.5341
1053.382,207.1178
1053.864,207.739
1054.346,207.7955
1054.828,207.184
1055.311,206.9187
1055.793,207.6846
1056.275,208.2727
1056.757,208.1314
1057.239,207.7984
1057.721,207.6065
1058.203,207.5447
1058.685,207.4602
1059.167,207.3423
1059.65,207.6155
1060.132,209.1168
1060.614,210.0893
1061.096,209.2914
1061.578,208.2798
1062.06,208.2562
1062.542,208.8446
1063.024,209.3428
1063.506,209.6277
1063.989,209.835
1064.471,209.8787
1064.953,210.0458
1065.435,210.5606
1065.917,211.1371
1066.399,211.5337
1066.881,211.8556
1067.363,212.3212
1067.846,212.9336
1068.328,213.4551
1068.81,213.971
1069.292,214.0782
1069.774,212.9489
1070.256,212.0028
1070.738,212.707
1071.22,214.0505
1071.703,214.4962
1072.185,213.9525
1072.667,213.4088
1073.149,213.1567
1073.631,213.1161
1074.113,213.308
1074.595,213.6377
1075.077,214.0557
1075.559,214.5562
1076.042,215.2381
1076.524,216.021
1077.006,216.607
1077.488,217.0008
1077.97,216.855
1078.452,215.2243
1078.934,213.8592
1079.416,214.4671
1079.898,215.6467
1080.38,215.5203
1080.863,214.3155
1081.345,213.6106
1081.827,214.0364
1082.309,214.2414
1082.791,213.4577
1083.273,212.4536
1083.755,211.4284
1084.237,210.6352
1084.72,210.6182
1085.202,210.9995
1085.684,210.6109
1086.166,209.0251
1086.648,207.937
1087.13,208.5393
1087.612,209.2245
1088.094,209.3745
1088.577,209.0364
1089.059,208.0508
1089.541,206.7049
1090.023,205.4761
1090.505,204.4547
1090.987,203.8143
1091.469,203.939
1091.951,204.0298
1092.433,203.8391
1092.916,203.3957
1093.398,202.4434
1093.88,201.3905
1094.362,201.021
1094.844,201.3775
1095.326,201.4382
1095.808,200.7258
1096.29,199.9046
1096.772,198.8504
1097.255,198.1216
1097.737,198.458
1098.219,199.0921
1098.701,198.9894
1099.183,198.1273
1099.665,197.1208
1100.147,195.7919
1100.629,194.9925
1101.112,195.3319
1101.594,195.7904
1102.076,196.0064
1102.558,195.9808
1103.04,195.6948
1103.522,195.1894
1104.004,194.5673
1104.486,193.7363
1104.969,193.1269
1105.451,193.0421
1105.933,192.897
1106.415,192.1927
1106.897,191.6184
1107.379,191.9922
1107.861,192.8719
1108.343,193.1326
1108.825,192.5954
1109.307,192.0069
1109.79,191.1466
1110.272,190.6458
1110.754,191.0009
1111.236,191.3624
1111.718,191.1208
1112.2,190.6067
1112.682,190.4385
1113.164,190.6567
1113.647,190.504
1114.129,189.5384
1114.611,188.9416
1115.093,188.9265
1115.575,189.1252
1116.057,189.7142
1116.539,190.1248
1117.021,189.4532
1117.504,187.9349
1117.986,187.3694
1118.468,188.4075
1118.95,188.8255
1119.432,188.2668
1119.914,187.7659
1120.396,187.6704
1120.878,187.6933
1121.36,187.5789
1121.843,187.4013
1122.325,187.3934
1122.807,187.5981
1123.289,187.7187
1123.771,187.7569
1124.253,187.7011
1124.735,187.529
1125.217,187.307
1125.699,187.0339
1126.182,186.8429
1126.664,187.0424
1127.146,187.5835
1127.628,187.4838
1128.11,186.6522
1128.592,185.9924
1129.074,185.6228
1129.556,185.4199
1130.039,185.3218
1130.521,185.4388
1131.003,185.971
1131.485,186.7061
1131.967,186.8342
1132.449,186.3922
1132.931,186.0043
1133.413,185.7097
1133.896,185.6582
1134.378,185.8941
1134.86,185.979
1135.342,185.552
1135.824,184.8835
1136.306,184.4603
1136.788,184.2165
1137.27,183.7652
1137.752,183.2343
1138.234,183.4267
1138.717,184.3583
1139.199,185.0293
1139.681,184.9294
1140.163,184.4991
1140.645,184.1541
1141.127,183.8799
1141.609,183.598
1142.091,183.3834
1142.574,183.5763
1143.056,183.9956
1143.538,183.8813
1144.02,183.0681
1144.502,182.3143
1144.984,182.1582
1145.466,182.2715
1145.948,182.3627
1146.431,182.4799
1146.913,182.8426
1147.395,183.2049
1147.877,182.9763
1148.359,182.2464
1148.841,181.8074
1149.323,182.0334
1149.805,182.3226
1150.287,182.3296
1150.77,182.2258
1151.252,181.9674
1151.734,181.7992
1152.216,182.1384
1152.698,182.7376
1153.18,182.963
1153.662,182.6844
1154.144,182.4643
1154.626,182.7282
1155.109,182.7439
1155.591,181.9159
1156.073,181.1578
1156.555,181.0512
1157.037,181.3392
1157.519,181.8307
1158.001,182.4174
1158.483,182.5369
1158.966,181.8128
1159.448,181.3194
1159.93,181.3669
1160.412,181.3139
1160.894,180.9269
1161.376,180.4448
1161.858,179.8962
1162.34,179.4644
1162.822,179.633
1163.305,180.5003
1163.787,180.877
1164.269,180.5254
1164.751,180.4226
1165.233,180.8699
1165.715,181.0191
1166.197,180.3416
1166.679,179.5355
1167.161,179.4755
1167.644,179.9252
1168.126,179.8563
1168.608,179.2442
1169.09,178.8246
1169.572,178.6257
1170.054,178.8557
1170.536,179.584
1171.018,180.1729
1171.5,180.1784
1171.983,179.8279
1172.465,179.3142
1172.947,178.8082
1173.429,179.1075
1173.911,179.9172
1174.393,180.0518
1174.875,179.4839
1175.357,178.8882
1175.84,178.5333
1176.322,178.3709
1176.804,178.3665
1177.286,178.5154
1177.768,179.0704
1178.25,179.5852
1178.732,179.1586
1179.214,178.2821
1179.697,178.0254
1180.179,178.4312
1180.661,178.8381
1181.143,178.9934
1181.625,178.9515
1182.107,178.542
1182.589,178.1886
1183.071,178.2373
1183.553,178.4131
1184.036,178.4519
1184.518,178.412
1185.0,178.4295
1185.482,178.5274
1185.964,178.7074
1186.446,179.1357
1186.928,179.3808
1187.41,179.2564
1187.892,179.0812
1188.375,178.9533
1188.857,178.8676
1189.339,178.7998
1189.821,178.7763
1190.303,178.945
1190.785,179.4545
1191.267,179.1758
1191.749,177.4985
1192.232,176.8463
1192.714,177.9556
1193.196,179.1002
1193.678,179.451
1194.16,179.31
1194.642,178.9724
1195.124,178.5326
1195.606,178.437
1196.089,178.6628
1196.571,178.5789
1197.053,178.1727
1197.535,177.7564
1198.017,177.4206
1198.499,177.3144
1198.981,177.546
1199.463,177.8351
1199.945,177.7746
1200.427,177.5381
1200.91,177.4573
1201.392,177.4802
1201.874,177.4436
1202.356,177.4047
1202.838,177.6738
1203.32,178.2588
1203.802,178.5991
1204.284,178.3062
1204.767,177.864
1205.249,177.4003
1205.731,177.1949
1206.213,177.9291
1206.695,178.7242
1207.177,178.2322
1207.659,176.9456
1208.141,176.5027
1208.624,177.2921
1209.106,177.6946
1209.588,176.6612
1210.07,176.1994
1210.552,177.4609
1211.034,178.5134
1211.516,178.1003
1211.998,177.2657
1212.48,177.019
1212.963,177.2262
1213.445,177.41
1213.927,177.6073
1214.409,177.5498
1214.891,177.1344
1215.373,176.9007
1215.855,177.0031
1216.337,177.027
1216.819,176.7434
1217.302,176.3232
1217.784,175.9204
1218.266,175.6403
1218.748,175.9858
1219.23,176.7619
1219.712,176.9133
1220.194,176.5017
1220.676,176.1012
1221.159,175.8661
1221.641,175.8221
1222.123,175.9932
1222.605,176.0903
1223.087,175.5849
1223.569,175.089
1224.051,175.5456
1224.533,176.2501
1225.016,176.1932
1225.498,175.6702
1225.98,175.4337
1226.462,175.5604
1226.944,175.5615
1227.426,175.2136
1227.908,174.8851
1228.39,174.5111
1228.872,174.4306
1229.354,175.0181
1229.837,175.7277
1230.319,176.3616
1230.801,176.7056
1231.283,176.3067
1231.765,175.195
1232.247,174.4118
1232.729,173.9633
1233.211,173.8541
1233.694,174.1521
1234.176,174.6141
1234.658,175.2627
1235.14,175.5919
1235.622,175.1752
1236.104,174.4838
1236.586,174.3484
1237.068,174.6179
1237.551,174.6704
1238.033,174.5457
1238.515,174.3502
1238.997,174.1498
1239.479,174.2672
1239.961,174.7177
1240.443,174.8896
1240.925,174.3378
1241.407,173.6839
1241.89,173.6285
1242.372,173.6527
1242.854,173.0636
1243.336,172.3932
1243.818,172.5171
1244.3,173.0286
1244.782,172.7331
1245.264,171.5524
1245.746,171.2048
1246.229,173.0611
1246.711,174.062
1247.193,172.6963
1247.675,171.7562
1248.157,172.5322
1248.639,173.6323
1249.121,174.2538
1249.603,174.3947
1250.085,173.9652
1250.568,173.0112
1251.05,172.2942
1251.532,171.7993
1252.014,171.7944
1252.496,172.3214
1252.978,172.6987
1253.46,172.7216
1253.942,172.5262
1254.425,172.1891
1254.907,171.8721
1255.389,171.8802
1255.871,172.0077
1256.353,171.819
1256.835,171.4893
1257.317,171.3727
1257.799,171.402
1258.281,171.3297
1258.764,171.1158
1259.246,170.8685
1259.728,170.5833
1260.21,170.4711
1260.692,170.8582
1261.174,171.142
1261.656,170.9006
1262.138,170.5859
1262.62,170.5847
1263.103,170.7182
1263.585,170.6714
1264.067,170.4665
1264.549,170.3127
1265.031,170.2011
1265.513,170.1791
1265.995,170.2826
1266.477,170.2964
1266.96,170.159
1267.442,170.0439
1267.924,170.0653
1268.406,169.9783
1268.888,169.4109
1269.37,168.6728
1269.852,168.496
1270.334,168.7092
1270.817,169.0321
1271.299,169.319
1271.781,169.1138
1272.263,168.5384
1272.745,168.3939
1273.227,168.9883
1273.709,169.406
1274.191,168.836
1274.673,168.3251
1275.156,168.598
1275.638,168.8748
1276.12,168.5326
1276.602,167.9904
1277.084,167.7635
1277.566,167.7558
1278.048,167.5498
1278.53,167.0833
1279.012,167.0332
1279.495,167.5714
1279.977,167.8572
1280.459,167.7715
1280.941,167.6239
1281.423,167.5131
1281.905,167.4758
1282.387,167.5446
1282.869,167.6876
1283.352,168.0075
1283.834,168.2588
1284.316,167.901
1284.798,166.9417
