Raman Shift,Intensity 
400,16.79712773
401,16.79964239
402,16.7899027
403,16.81272493
404,16.80563231
405,16.78077704
406,16.81171798
407,16.77184039
408,16.76896024
409,16.80811158
410,16.80354084
411,16.77714352
412,16.79421112
413,16.82172358
414,16.79699575
415,16.81307231
416,16.7911451
417,16.79949228
418,16.79858614
419,16.79730415
420,16.78733323
421,16.81435024
422,16.80357876
423,16.79444376
424,16.79181439
425,16.81085321
426,16.80898206
427,16.80898063
428,16.80980572
429,16.79341294
430,16.77895395
431,16.79999549
432,16.80690508
433,16.77614484
434,16.80610136
435,16.78033726
436,16.78641967
437,16.78312991
438,16.78830921
439,16.81849429
440,16.81305872
441,16.80260228
442,16.80165509
443,16.808641
444,16.81917497
445,16.83086189
446,16.82371857
447,16.84274507
448,16.84274753
449,16.85719948
450,16.84660053
451,16.85991678
452,16.87835056
453,16.92021086
454,16.90684652
455,16.9458368
456,16.96409616
457,16.96848604
458,16.98674219
459,16.99529331
460,17.03094262
461,17.0279358
462,17.05779288
463,17.05980195
464,17.06758345
465,17.07421779
466,17.08592611
467,17.07941675
468,17.1144559
469,17.08012148
470,17.11169353
471,17.09528085
472,17.07488201
473,17.06344563
474,17.06549825
475,17.02748124
476,17.01642298
477,17.02111072
478,16.99160282
479,16.94707441
480,16.90629284
481,16.94927113
482,16.90473818
483,16.90106789
484,16.87078216
485,16.89534239
486,16.87850701
487,16.85285232
488,16.81365374
489,16.83636974
490,16.81749479
491,16.81200016
492,16.80152272
493,16.79884344
494,16.80579725
495,16.80769452
496,16.80922156
497,16.79097083
498,16.80489622
499,16.81442771
500,16.81855372
501,16.79963649
502,16.80007188
503,16.78399821
504,16.80847962
505,16.81688246
506,16.80899954
507,16.82576483
508,16.79074568
509,16.77070884
510,16.79456729
511,16.80630506
512,16.79527133
513,16.80039548
514,16.80081251
515,16.80978897
516,16.79353861
517,16.77857183
518,16.78789477
519,16.81247736
520,16.77665189
521,16.78870839
522,16.84474533
523,16.79927878
524,16.77420599
525,16.80218488
526,16.77675833
527,16.79998526
528,16.7981329
529,16.81229845
530,16.77504331
531,16.80730577
532,16.79980363
533,16.81414667
534,16.80155486
535,16.81722303
536,16.8263284
537,16.78880275
538,16.76914092
539,16.77972013
540,16.79305559
541,16.81262418
542,16.80047785
543,16.81488755
544,16.81462541
545,16.80264114
546,16.80853217
547,16.79409158
548,16.80706352
549,16.78916612
550,16.7973198
551,16.81037293
552,16.80040002
553,16.81670248
554,16.81176481
555,16.79957863
556,16.81056263
557,16.78820657
558,16.79597052
559,16.80039254
560,16.76991486
561,16.79416749
562,16.80762521
563,16.80152945
564,16.81050221
565,16.81391354
566,16.805121
567,16.7863581
568,16.78459615
569,16.79923468
570,16.79926611
571,16.82415114
572,16.81592383
573,16.80642223
574,16.80137027
575,16.79686304
576,16.80119129
577,16.80664192
578,16.79285856
579,16.81940471
580,16.80607661
581,16.78728626
582,16.77929822
583,16.79033408
584,16.80034396
585,16.79601837
586,16.77063039
587,16.78427786
588,16.81210496
589,16.80679511
590,16.83145384
591,16.84757897
592,16.80168199
593,16.80380963
594,16.82367444
595,16.78040137
596,16.79367119
597,16.80247123
598,16.80186685
599,16.81281991
600,16.80104534
601,16.7955394
602,16.80167145
603,16.83259781
604,16.81860437
605,16.76019708
606,16.79892253
607,16.7908297
608,16.78722907
609,16.81794944
610,16.79357444
611,16.83002836
612,16.79265532
613,16.79318241
614,16.80215975
615,16.81475927
616,16.77061643
617,16.81106457
618,16.81064763
619,16.81054597
620,16.7895479
621,16.78081114
622,16.79573439
623,16.82754986
624,16.80243725
625,16.82750677
626,16.81067771
627,16.81556929
628,16.81689679
629,16.80467525
630,16.80721883
631,16.78074286
632,16.82960292
633,16.79678393
634,16.81772938
635,16.76983074
636,16.79792028
637,16.77982534
638,16.78942112
639,16.7963404
640,16.80129032
641,16.78946958
642,16.82959713
643,16.79480014
644,16.77036724
645,16.81151672
646,16.78061332
647,16.79584692
648,16.8238376
649,16.76720244
650,16.78650285
651,16.79003533
652,16.80618568
653,16.80998007
654,16.78724257
655,16.78860768
656,16.78598337
657,16.78490228
658,16.79280249
659,16.80819751
660,16.81816109
661,16.7873479
662,16.7865414
663,16.80782492
664,16.77543093
665,16.77781183
666,16.78138984
667,16.80370816
668,16.8074286
669,16.83601873
670,16.79310101
671,16.81229132
672,16.79303355
673,16.77519734
674,16.77892751
675,16.78286674
676,16.82761448
677,16.80471891
678,16.81865163
679,16.82369397
680,16.80345905
681,16.78754746
682,16.79325247
683,16.81097395
684,16.81567478
685,16.79882634
686,16.80869647
687,16.78792911
688,16.79984834
689,16.79593105
690,16.79312337
691,16.8328412
692,16.81987862
693,16.78001119
694,16.81933019
695,16.81471057
696,16.80019607
697,16.77276145
698,16.78441549
699,16.7852726
700,16.79236549
701,16.79580576
702,16.79684469
703,16.77304989
704,16.8172448
705,16.816672
706,16.80102246
707,16.76733234
708,16.80227878
709,16.82041396
710,16.81247119
711,16.80027003
712,16.77247417
713,16.78450029
714,16.80807363
715,16.81717511
716,16.80244114
717,16.81397108
718,16.79228983
719,16.79756825
720,16.80205789
721,16.80297432
722,16.81687097
723,16.8313511
724,16.80297775
725,16.77962596
726,16.7916789
727,16.79381882
728,16.81314755
729,16.80151313
730,16.80793262
731,16.81331635
732,16.79645508
733,16.81335203
734,16.80663842
735,16.82294976
736,16.78825006
737,16.81301999
738,16.79766858
739,16.79915716
740,16.76673827
741,16.79865396
742,16.82702328
743,16.76374974
744,16.79102899
745,16.82257361
746,16.80024366
747,16.81403361
748,16.77358456
749,16.79465831
750,16.80719824
751,16.80778003
752,16.77560877
753,16.77233498
754,16.8089165
755,16.77642323
756,16.77842047
757,16.80662681
758,16.79879358
759,16.80461482
760,16.78368688
761,16.8062162
762,16.78759351
763,16.79676472
764,16.80885032
765,16.7783517
766,16.82601508
767,16.78797198
768,16.78872746
769,16.80889763
770,16.80600105
771,16.81082741
772,16.79599974
773,16.80535963
774,16.80741694
775,16.79320944
776,16.79757568
777,16.81632051
778,16.77298116
779,16.79862197
780,16.79740859
781,16.79728125
782,16.79879665
783,16.79113034
784,16.80429835
785,16.79621981
786,16.79716666
787,16.79384471
788,16.78982883
789,16.85376495
790,16.79087275
791,16.80770743
792,16.79086359
793,16.79428975
794,16.79068293
795,16.77069416
796,16.78415903
797,16.81674154
798,16.79591398
799,16.80797996
800,16.82958595
801,16.81501823
802,16.79666866
803,16.81281967
804,16.82098347
805,16.78307776
806,16.81267947
807,16.82075717
808,16.79893422
809,16.80507031
810,16.78085811
811,16.7924926
812,16.80493707
813,16.81321218
814,16.76264739
815,16.81680831
816,16.80446859
817,16.81828255
818,16.81312438
819,16.80731863
820,16.80405603
821,16.78216967
822,16.79219536
823,16.81998508
824,16.79534934
825,16.78063793
826,16.81187277
827,16.81122184
828,16.7845258
829,16.79632907
830,16.80863327
831,16.80712225
832,16.77667091
833,16.79482788
834,16.81650255
835,16.78988794
836,16.77925953
837,16.7843501
838,16.7928265
839,16.78678982
840,16.8307986
841,16.7934408
842,16.82167885
843,16.79318079
844,16.77511096
845,16.80383371
846,16.82690488
847,16.81229098
848,16.80118578
849,16.80860204
850,16.79550454
851,16.80059087
852,16.78878622
853,16.78295788
854,16.80714173
855,16.81739274
856,16.77774724
857,16.78783767
858,16.81722043
859,16.79964877
860,16.81309009
861,16.82200183
862,16.81469076
863,16.8134198
864,16.7972771
865,16.79173734
866,16.82866899
867,16.77094172
868,16.78262587
869,16.80164233
870,16.80483013
871,16.78479236
872,16.78185226
873,16.81630242
874,16.80641387
875,16.79400552
876,16.81625186
877,16.82013754
878,16.78880676
879,16.77988007
880,16.80454172
881,16.81476818
882,16.78258615
883,16.82443074
884,16.81798088
885,16.79308708
886,16.80813082
887,16.80513126
888,16.7733876
889,16.77793533
890,16.83949764
891,16.78560944
892,16.82317215
893,16.81938966
894,16.80916611
895,16.78999685
896,16.78416449
897,16.80738467
898,16.79003571
899,16.79085933
900,16.80302053
901,16.79128146
902,16.77195839
903,16.82075235
904,16.80653133
905,16.79498009
906,16.77604661
907,16.80060097
908,16.80938541
909,16.78352742
910,16.77577825
911,16.78767845
912,16.79026269
913,16.77236207
914,16.8056378
915,16.80145089
916,16.81038585
917,16.78989182
918,16.79075679
919,16.79150225
920,16.78404924
921,16.81106395
922,16.80692673
923,16.81798532
924,16.78402692
925,16.80616632
926,16.80882686
927,16.81251029
928,16.80554921
929,16.81296868
930,16.77565709
931,16.79798624
932,16.81442701
933,16.80597065
934,16.79674712
935,16.77927157
936,16.82926546
937,16.79423206
938,16.78694741
939,16.80003528
940,16.80138145
941,16.80393397
942,16.79858304
943,16.77088326
944,16.80824214
945,16.79737484
946,16.79027915
947,16.81888364
948,16.78321851
949,16.80852312
950,16.80646144
951,16.81776195
952,16.82711515
953,16.82206826
954,16.82380759
955,16.82710764
956,16.82034288
957,16.8305293
958,16.82218536
959,16.8314495
960,16.8090137
961,16.84764093
962,16.84460982
963,16.86572778
964,16.89379321
965,16.91993016
966,16.93009199
967,16.92965211
968,16.97135695
969,16.98113338
970,17.00952021
971,17.0483675
972,17.07515074
973,17.13593437
974,17.1502893
975,17.20297131
976,17.26444162
977,17.31587765
978,17.32515339
979,17.40282274
980,17.46607213
981,17.49090111
982,17.55549525
983,17.61066008
984,17.65290825
985,17.69713257
986,17.71532427
987,17.7500301
988,17.79180458
989,17.77918573
990,17.81610272
991,17.77935125
992,17.77907807
993,17.79099959
994,17.75826111
995,17.74612617
996,17.69918364
997,17.72000883
998,17.64328843
999,17.60497254
1000,17.57766871
1001,17.48668448
1002,17.43568015
1003,17.38540938
1004,17.36169351
1005,17.32001752
1006,17.27999612
1007,17.20433995
1008,17.17481082
1009,17.09576121
1010,17.07999451
1011,17.05922298
1012,16.98429068
1013,16.96856891
1014,16.96699929
1015,16.97532328
1016,16.92618802
1017,16.89684043
1018,16.86214141
1019,16.87891861
1020,16.86767054
1021,16.84477091
1022,16.83947897
1023,16.81084072
1024,16.83170997
1025,16.80647128
1026,16.79986473
1027,16.80569467
1028,16.78680715
1029,16.81941391
1030,16.80170959
1031,16.80166413
1032,16.82408168
1033,16.8192902
1034,16.79802813
1035,16.80533192
1036,16.79778867
1037,16.79635051
1038,16.79977335
1039,16.79732733
1040,16.79529586
1041,16.80639063
1042,16.81618182
1043,16.79111883
1044,16.80636203
1045,16.77796302
1046,16.79757879
1047,16.78251426
1048,16.80357464
1049,16.78445087
1050,16.79713062
1051,16.80700073
1052,16.80114832
1053,16.81576255
1054,16.80507203
1055,16.80283748
1056,16.7742841
1057,16.78627595
1058,16.80135445
1059,16.81987315
1060,16.78920938
1061,16.79626561
1062,16.80697015
1063,16.80123836
1064,16.78855034
1065,16.82492989
1066,16.7902761
1067,16.8144296
1068,16.79969206
1069,16.83691813
1070,16.80678506
1071,16.77972195
1072,16.80228946
1073,16.81176845
1074,16.80768788
1075,16.80402697
1076,16.79250097
1077,16.81020077
1078,16.82235697
1079,16.81761909
1080,16.81614051
1081,16.83056859
1082,16.82764346
1083,16.8181192
1084,16.82777692
1085,16.84272363
1086,16.88531262
1087,16.86591099
1088,16.87612321
1089,16.8439181
1090,16.89118777
1091,16.90434998
1092,16.90349368
1093,16.89807214
1094,16.92505382
1095,16.91877373
1096,16.99026916
1097,16.97410902
1098,16.98547877
1099,16.99214475
1100,17.04870474
1101,17.00395558
1102,17.04359426
1103,17.06087195
1104,17.10798892
1105,17.09411501
1106,17.13586627
1107,17.15291566
1108,17.13744971
1109,17.20965061
1110,17.19445094
1111,17.2278617
1112,17.22737795
1113,17.24875737
1114,17.2829498
1115,17.30033935
1116,17.31255224
1117,17.34526843
1118,17.32430489
1119,17.33054022
1120,17.35501218
1121,17.39359491
1122,17.38216903
1123,17.39423541
1124,17.385598
1125,17.37960158
1126,17.41405114
1127,17.41537327
1128,17.42116383
1129,17.40280308
1130,17.39165988
1131,17.36831221
1132,17.3604837
1133,17.36293919
1134,17.34339742
1135,17.33654311
1136,17.31865935
1137,17.28115308
1138,17.28318811
1139,17.25192007
1140,17.25418587
1141,17.2250506
1142,17.21387424
1143,17.18440614
1144,17.15473051
1145,17.15577355
1146,17.12933616
1147,17.1264443
1148,17.07988122
1149,17.06631007
1150,17.03377807
1151,17.0191839
1152,17.00117148
1153,17.01126831
1154,16.98368275
1155,16.9417273
1156,16.94032431
1157,16.95710889
1158,16.9250925
1159,16.92713814
1160,16.90770963
1161,16.9253011
1162,16.8878681
1163,16.86651363
1164,16.87608814
1165,16.84593752
1166,16.85618282
1167,16.86275587
1168,16.83805253
1169,16.83142679
1170,16.83920346
1171,16.80493623
1172,16.83551383
1173,16.82355069
1174,16.80906174
1175,16.80204731
1176,16.83049532
1177,16.81395163
1178,16.80940125
1179,16.80723185
1180,16.82483371
1181,16.79112506
1182,16.79552972
1183,16.82440524
1184,16.82155318
1185,16.80481963
1186,16.78886859
1187,16.79001419
1188,16.79563841
1189,16.79497479
1190,16.82330112
1191,16.81019184
1192,16.80449686
1193,16.77576039
1194,16.78411882
1195,16.80999305
1196,16.80847338
1197,16.81304154
1198,16.809253
1199,16.80057814
1200,16.81574501
1201,16.80799652
1202,16.79233196
1203,16.8286695
1204,16.78555532
1205,16.77233973
1206,16.80250453
1207,16.81172605
1208,16.80068603
1209,16.79079336
1210,16.7999307
1211,16.82107239
1212,16.79740423
1213,16.78434689
1214,16.79503642
1215,16.81223435
1216,16.81225121
1217,16.77002008
1218,16.80654108
1219,16.77663777
1220,16.79816053
1221,16.75412984
1222,16.79969382
1223,16.80575644
1224,16.80094239
1225,16.78449649
1226,16.78719414
1227,16.80173042
1228,16.80853589
1229,16.78764514
1230,16.77697233
1231,16.80214136
1232,16.81329868
1233,16.78576241
1234,16.79835788
1235,16.81824479
1236,16.80575342
1237,16.78385626
1238,16.7859789
1239,16.78695891
1240,16.80151113
1241,16.80547737
1242,16.78687526
1243,16.84325728
1244,16.81167256
1245,16.81989219
1246,16.83135309
1247,16.82814132
1248,16.75877415
1249,16.78913084
1250,16.81134283
1251,16.80857522
1252,16.78081175
1253,16.79583012
1254,16.81762082
1255,16.80661018
1256,16.80235206
1257,16.82013483
1258,16.79817019
1259,16.8213205
1260,16.80479908
1261,16.82473637
1262,16.82514553
1263,16.78180533
1264,16.781735
1265,16.80233242
1266,16.79075719
1267,16.80818667
1268,16.8322866
1269,16.80440414
1270,16.7858851
1271,16.81661666
1272,16.80496577
1273,16.77687369
1274,16.79975697
1275,16.82018488
1276,16.80995482
1277,16.80111387
1278,16.80490659
1279,16.79966523
1280,16.79878205
1281,16.78856239
1282,16.80547225
1283,16.81187784
1284,16.79890588
1285,16.78664072
1286,16.79308267
1287,16.77838925
1288,16.81407699
1289,16.82433356
1290,16.79748988
1291,16.80202597
1292,16.79230443
1293,16.77718688
1294,16.80684972
1295,16.78400583
1296,16.81271775
1297,16.81037084
1298,16.79225594
1299,16.80218949
1300,16.79435538
1301,16.78349201
1302,16.81199472
1303,16.81427363
1304,16.78349174
1305,16.79651159
1306,16.78681503
1307,16.81361207
1308,16.7920783
1309,16.80509069
1310,16.81976075
1311,16.81760559
1312,16.7778557
1313,16.82663778
1314,16.78245541
1315,16.7853277
1316,16.81096387
1317,16.79588826
1318,16.78823789
1319,16.78874404
1320,16.79864968
1321,16.78093972
1322,16.80578746
1323,16.82852195
1324,16.83065293
1325,16.76641091
1326,16.80878763
1327,16.78827248
1328,16.81736975
1329,16.79011411
1330,16.80320743
1331,16.79564659
1332,16.76508058
1333,16.80546721
1334,16.79990007
1335,16.78804557
1336,16.82208007
1337,16.79677785
1338,16.8178441
1339,16.78822086
1340,16.79925929
1341,16.78301544
1342,16.78012042
1343,16.80835427
1344,16.78897246
1345,16.80098394
1346,16.79711103
1347,16.80982208
1348,16.81865559
1349,16.83418266
1350,16.83001257
1351,16.7867555
1352,16.78859754
1353,16.81700353
1354,16.7940909
1355,16.82009483
1356,16.81830593
1357,16.82585166
1358,16.80221909
1359,16.81873131
1360,16.81490416
1361,16.78714274
1362,16.80457985
1363,16.81798697
1364,16.77949627
1365,16.77501947
1366,16.82403136
1367,16.80142635
1368,16.78431328
1369,16.80351359
1370,16.78764538
1371,16.80557478
1372,16.81471591
1373,16.77813855
1374,16.77897153
1375,16.8111385
1376,16.79980529
1377,16.80917615
1378,16.80613816
1379,16.76823975
1380,16.80522817
1381,16.8176106
1382,16.80185968
1383,16.78455023
1384,16.79881854
1385,16.80585349
1386,16.81324052
1387,16.79940657
1388,16.81549759
1389,16.77471132
1390,16.77909151
1391,16.77429579
1392,16.78325438
1393,16.80820013
1394,16.78092397
1395,16.771049
1396,16.8095113
1397,16.81453153
1398,16.81387165
1399,16.81578422
1400,16.78343257
1401,16.79360751
1402,16.79086481
1403,16.79815122
1404,16.78006515
1405,16.77496737
1406,16.79876561
1407,16.79945945
1408,16.78679754
1409,16.81025322
1410,16.81037514
1411,16.79648412
1412,16.81698159
1413,16.80722033
1414,16.80175209
1415,16.78728879
1416,16.81670074
1417,16.80494251
1418,16.81208221
1419,16.77922932
1420,16.80798314
1421,16.82481082
1422,16.78313152
1423,16.81735147
1424,16.80718319
1425,16.80545311
1426,16.80935588
1427,16.81590506
1428,16.79924678
1429,16.80253036
1430,16.82794193
1431,16.78175502
1432,16.80225207
1433,16.7960835
1434,16.79489593
1435,16.81798451
1436,16.80807557
1437,16.75593055
1438,16.80767479
1439,16.8053182
1440,16.79575443
1441,16.80490604
1442,16.77891072
1443,16.80637474
1444,16.80746319
1445,16.81729088
1446,16.80027474
1447,16.79383302
1448,16.77961366
1449,16.79210761
1450,16.8255611
1451,16.82295327
1452,16.78710488
1453,16.82211784
1454,16.8218376
1455,16.79814504
1456,16.78821388
1457,16.82239802
1458,16.79892626
1459,16.80183066
1460,16.80231631
1461,16.79722433
1462,16.80030187
1463,16.79231769
1464,16.79795487
1465,16.80488289
1466,16.79878472
1467,16.80304496
1468,16.80269541
1469,16.77240564
1470,16.82146833
1471,16.78687044
1472,16.80569223
1473,16.81859851
1474,16.79555229
1475,16.80868344
1476,16.83037041
1477,16.78734442
1478,16.79019037
1479,16.78096793
1480,16.80971853
1481,16.80404723
1482,16.80233862
1483,16.81197868
1484,16.7996034
1485,16.81073376
1486,16.82506027
1487,16.78718503
1488,16.78617001
1489,16.82919156
1490,16.79412437
1491,16.776079
1492,16.80109421
1493,16.80239663
1494,16.81466711
1495,16.79225875
1496,16.78100321
1497,16.79771232
1498,16.78423976
1499,16.78772839
1500,16.8122273
1501,16.82143284
1502,16.78869377
1503,16.80518756
1504,16.77678408
1505,16.82218868
1506,16.80740394
1507,16.80215998
1508,16.79710211
1509,16.78300142
1510,16.78954709
1511,16.79348412
1512,16.80261026
1513,16.77669113
1514,16.8253529
1515,16.79917831
1516,16.79389914
1517,16.8194688
1518,16.79612311
1519,16.83197996
1520,16.80564461
1521,16.80898102
1522,16.81116104
1523,16.77939557
1524,16.82991077
1525,16.82389057
1526,16.82138104
1527,16.80208292
1528,16.82459629
1529,16.78349076
1530,16.789016
1531,16.80099873
1532,16.80142789
1533,16.83514875
1534,16.78028207
1535,16.77505942
1536,16.79174446
1537,16.78823907
1538,16.79256752
1539,16.7836209
1540,16.78845762
1541,16.81160079
1542,16.81974355
1543,16.78408747
1544,16.80719086
1545,16.80499642
1546,16.81308048
1547,16.80177305
1548,16.76235838
1549,16.82085643
1550,16.80203177
1551,16.77176981
1552,16.7907423
1553,16.80329911
1554,16.81141646
1555,16.78863194
1556,16.80271292
1557,16.78450629
1558,16.80735382
1559,16.80642986
1560,16.79730373
1561,16.81471602
1562,16.8094832
1563,16.80345671
1564,16.79508266
1565,16.78171178
1566,16.81083122
1567,16.81617596
1568,16.81325375
1569,16.78549992
1570,16.80884974
1571,16.82524339
1572,16.79516618
1573,16.8056653
1574,16.81846006
1575,16.81316551
1576,16.82477956
1577,16.78677299
1578,16.77095913
1579,16.80558137
1580,16.80578483
1581,16.79714198
1582,16.81345327
1583,16.80032924
1584,16.786667
1585,16.80032022
1586,16.79582255
1587,16.81569057
1588,16.81280811
1589,16.8162783
1590,16.79624409
1591,16.83273012
1592,16.79732812
1593,16.7943068
1594,16.80329042
1595,16.83391832
1596,16.82042349
1597,16.79889469
1598,16.79456257
1599,16.78591728
1600,16.79076904
1601,16.80153237
1602,16.82071002
1603,16.79081013
1604,16.81444585
1605,16.78509637
1606,16.77366572
1607,16.79658866
1608,16.77845257
1609,16.81205346
1610,16.81186644
1611,16.79856406
1612,16.80730835
1613,16.7850302
1614,16.78644744
1615,16.80922485
1616,16.78551501
1617,16.80570527
1618,16.78658146
1619,16.79101627
1620,16.80509215
1621,16.79805128
1622,16.81416236
1623,16.81385555
1624,16.7996945
1625,16.80614639
1626,16.82021902
1627,16.7850674
1628,16.80378475
1629,16.79512616
1630,16.77318386
1631,16.7759626
1632,16.78291819
1633,16.79844844
1634,16.78266769
1635,16.78132117
1636,16.78956459
1637,16.78129541
1638,16.82062534
1639,16.79405256
1640,16.79102935
1641,16.78780372
1642,16.8063278
1643,16.79861975
1644,16.81386104
1645,16.78579028
1646,16.80516718
1647,16.79823137
1648,16.80797092
1649,16.77314971
1650,16.78434677
1651,16.76954104
1652,16.79737794
1653,16.81896282
1654,16.80529354
1655,16.80436394
1656,16.81234561
1657,16.76728288
1658,16.76627928
1659,16.79956858
1660,16.80215982
1661,16.79240638
1662,16.79661036
1663,16.78748929
1664,16.80591619
1665,16.80630161
1666,16.79442916
1667,16.80114897
1668,16.78229156
1669,16.80122244
1670,16.78832141
1671,16.79999879
1672,16.794239
1673,16.79570881
1674,16.79877945
1675,16.81253957
1676,16.79967784
1677,16.78038111
1678,16.7871409
1679,16.81161609
1680,16.81041058
1681,16.80894893
1682,16.79500805
1683,16.78532649
1684,16.76753784
1685,16.81199829
1686,16.79408446
1687,16.80765357
1688,16.79583049
1689,16.81134916
1690,16.81184902
1691,16.80778255
1692,16.79277805
1693,16.77223208
1694,16.81909178
1695,16.83135156
1696,16.82801722
1697,16.80031805
1698,16.79003103
1699,16.80061705
1700,16.80987835
1701,16.79419075
1702,16.80752132
1703,16.78955838
1704,16.78606088
1705,16.76944854
1706,16.7877494
1707,16.80420275
1708,16.80476583
1709,16.81847236
1710,16.78852732
1711,16.78207751
1712,16.8219734
1713,16.79048333
1714,16.80551257
1715,16.76947003
1716,16.81439619
1717,16.80400443
1718,16.79040625
1719,16.78550402
1720,16.80622835
1721,16.79293795
1722,16.79407097
1723,16.79927785
1724,16.80182654
1725,16.79047159
1726,16.79889762
1727,16.79256015
1728,16.80366157
1729,16.80278008
1730,16.78249551
1731,16.79025291
1732,16.7983614
1733,16.78201581
1734,16.8001629
1735,16.81157657
1736,16.76794902
1737,16.8142097
1738,16.79479706
1739,16.80046678
1740,16.78080497
1741,16.78811475
1742,16.8199061
1743,16.80204225
1744,16.82449277
1745,16.80288775
1746,16.80404127
1747,16.79652164
1748,16.7949085
1749,16.78758787
1750,16.80508845
1751,16.78823833
1752,16.76772823
1753,16.80693123
1754,16.78061027
1755,16.80368093
1756,16.78240348
1757,16.78230296
1758,16.78860097
1759,16.79466323
1760,16.79250985
1761,16.80352928
1762,16.80898621
1763,16.80422964
1764,16.82392052
1765,16.8085976
1766,16.78424727
1767,16.77511648
1768,16.78186457
1769,16.80217548
1770,16.78136207
1771,16.8114087
1772,16.77457975
1773,16.79587424
1774,16.81038654
1775,16.81126486
1776,16.75901656
1777,16.81005759
1778,16.79690775
1779,16.7788079
1780,16.81689574
1781,16.77176478
1782,16.8263749
1783,16.79030109
1784,16.79265916
1785,16.7942148
1786,16.78525919
1787,16.78539816
1788,16.78769845
1789,16.79586471
1790,16.79306153
1791,16.77184847
1792,16.8245715
1793,16.81349112
1794,16.79643503
1795,16.79110828
1796,16.81000412
1797,16.79896749
1798,16.80361968
1799,16.81874106
1800,16.80153614
1801,16.79419017
1802,16.79436207
1803,16.81206398
1804,16.7988274
1805,16.78198407
1806,16.7948031
1807,16.83137203
1808,16.78614715
1809,16.79643982
1810,16.79238004
1811,16.79912122
1812,16.79369584
1813,16.79626916
1814,16.8214256
1815,16.80121572
1816,16.80439239
1817,16.80515786
1818,16.80003664
1819,16.80290237
1820,16.77389399
1821,16.82222064
1822,16.78766164
1823,16.82417917
1824,16.78524945
1825,16.77772776
1826,16.80687381
1827,16.82282548
1828,16.79151463
1829,16.81173982
1830,16.80294518
1831,16.80418476
1832,16.78508367
1833,16.82044855
1834,16.81825791
1835,16.82244686
1836,16.81298367
1837,16.83003572
1838,16.8002656
1839,16.80054485
1840,16.82232262
1841,16.81616857
1842,16.79540583
1843,16.79115535
1844,16.82961774
1845,16.8111539
1846,16.77886043
1847,16.79117298
1848,16.78517732
1849,16.78244567
1850,16.82288714
1851,16.82174599
1852,16.79598049
1853,16.77695125
1854,16.79682844
1855,16.76803775
1856,16.79515926
1857,16.80243632
1858,16.78435345
1859,16.79733673
1860,16.80355554
1861,16.78954163
1862,16.80213341
1863,16.80708391
1864,16.78196478
1865,16.81743363
1866,16.82272505
1867,16.79262448
1868,16.81757593
1869,16.7938846
1870,16.79558153
1871,16.80225334
1872,16.79133869
1873,16.83148463
1874,16.81195141
1875,16.79246321
1876,16.79172604
1877,16.78185366
1878,16.79799229
1879,16.81306578
1880,16.80954864
1881,16.78572655
1882,16.811923
1883,16.77538445
1884,16.80341603
1885,16.77507965
1886,16.81390365
1887,16.8025346
1888,16.80721807
1889,16.82336125
1890,16.81211277
1891,16.79342802
1892,16.80581914
1893,16.78465615
1894,16.80213152
1895,16.81398274
1896,16.80440963
1897,16.76693504
1898,16.81422381
1899,16.81969632
1900,16.80628268
1901,16.82960109
1902,16.79839265
1903,16.81642334
1904,16.81817673
1905,16.77585063
1906,16.79414049
1907,16.79545129
1908,16.78614274
1909,16.79600264
1910,16.79364502
1911,16.814896
1912,16.81025854
1913,16.81845535
1914,16.80211411
1915,16.80500245
1916,16.80157148
1917,16.79975272
1918,16.79489285
1919,16.80221058
1920,16.79541191
1921,16.79174138
1922,16.80774739
1923,16.798853
1924,16.80749773
1925,16.81084568
1926,16.80292915
1927,16.8030015
1928,16.79514919
1929,16.80036165
1930,16.82045481
1931,16.80466004
1932,16.82012926
1933,16.80506983
1934,16.76645819
1935,16.779655
1936,16.80675812
1937,16.80840763
1938,16.79041538
1939,16.80843125
1940,16.79714541
1941,16.80885007
1942,16.78639784
1943,16.79686119
1944,16.8084326
1945,16.78250211
1946,16.790234
1947,16.80847707
1948,16.77450261
1949,16.79636878
1950,16.80949271
1951,16.79211651
1952,16.79043862
1953,16.78693334
1954,16.806086
1955,16.78800728
1956,16.78785541
1957,16.82036074
1958,16.77798249
1959,16.7952626
1960,16.80845492
1961,16.79548132
1962,16.80630528
1963,16.80888213
1964,16.79989184
1965,16.82252395
1966,16.79778079
1967,16.81158753
1968,16.80950262
1969,16.80136604
1970,16.7931723
1971,16.82359251
1972,16.79908023
1973,16.81473572
1974,16.8012476
1975,16.80148113
1976,16.81318328
1977,16.80697106
1978,16.78777085
1979,16.8102731
1980,16.77668438
1981,16.81694829
1982,16.83065556
1983,16.79597856
1984,16.81292875
1985,16.80097868
1986,16.78740882
1987,16.82207941
1988,16.78046193
1989,16.79620589
1990,16.81102239
1991,16.81632805
1992,16.79373991
1993,16.80100059
1994,16.80083297
1995,16.80147033
1996,16.77014645
1997,16.80731458
1998,16.80905775
1999,16.82441783
2000,16.79650395
2001,16.80139762
2002,16.79370377
2003,16.80920494
2004,16.8092737
2005,16.79378835
2006,16.76987463
2007,16.80701111
2008,16.78109621
2009,16.80437868
2010,16.80684523
2011,16.7956855
2012,16.81303544
2013,16.79810604
2014,16.79868107
2015,16.78037751
2016,16.80971726
2017,16.81418614
2018,16.82849738
2019,16.75637146
2020,16.79546634
2021,16.80101233
2022,16.83135884
2023,16.81114436
2024,16.80318549
2025,16.80179667
2026,16.78698488
2027,16.79183346
2028,16.79513689
2029,16.81696952
2030,16.81087903
2031,16.79528449
2032,16.77981492
2033,16.79163764
2034,16.80803839
2035,16.78253048
2036,16.79091958
2037,16.79079895
2038,16.81516142
2039,16.80126525
2040,16.8185912
2041,16.78725757
2042,16.82055965
2043,16.82834718
2044,16.78083341
2045,16.82058738
2046,16.77262877
2047,16.81811425
2048,16.80630292
2049,16.78734987
2050,16.78399457
2051,16.806525
2052,16.80934071
2053,16.82006501
2054,16.76834542
2055,16.78201793
2056,16.79212943
2057,16.80195612
2058,16.80686413
2059,16.77684085
2060,16.78797018
2061,16.81974416
2062,16.77822659
2063,16.7934164
2064,16.79120601
2065,16.80331166
2066,16.80995331
2067,16.79006716
2068,16.79090343
2069,16.806484
2070,16.80119577
2071,16.79330194
2072,16.77871016
2073,16.78442909
2074,16.80685716
2075,16.82005479
2076,16.79580944
2077,16.79094381
2078,16.79614008
2079,16.79428595
2080,16.77299571
2081,16.7872267
2082,16.77999387
2083,16.78527035
2084,16.82146483
2085,16.81191965
2086,16.78707254
2087,16.81861848
2088,16.79597278
2089,16.80855743
2090,16.81457682
2091,16.81134656
2092,16.81391218
2093,16.77815237
2094,16.78436774
2095,16.81072999
2096,16.78070374
2097,16.79454503
2098,16.80059258
2099,16.78427404
2100,16.78583966
2101,16.77125227
2102,16.78954177
2103,16.80390285
2104,16.78703571
2105,16.80390826
2106,16.79487372
2107,16.80142267
2108,16.79516
2109,16.80065852
2110,16.7876348
2111,16.80736519
2112,16.80991523
2113,16.79516886
2114,16.79866556
2115,16.7934414
2116,16.80168488
2117,16.79411013
2118,16.79892655
2119,16.77349447
2120,16.78550099
2121,16.78698065
2122,16.82916987
2123,16.78957493
2124,16.80007002
2125,16.82267605
2126,16.81807081
2127,16.77048032
2128,16.79501021
2129,16.81580469
2130,16.81173995
2131,16.78998727
2132,16.81733587
2133,16.79093737
2134,16.79354964
2135,16.78307351
2136,16.78730668
2137,16.84151232
2138,16.79863105
2139,16.81501422
2140,16.80627281
2141,16.81151119
2142,16.79767082
2143,16.78217418
2144,16.81931544
2145,16.80810213
2146,16.82919093
2147,16.80118329
2148,16.8043527
2149,16.82998183
2150,16.79197253
2151,16.79028354
2152,16.82095711
2153,16.82125408
2154,16.81894841
2155,16.81389295
2156,16.80358541
2157,16.7859527
2158,16.79350642
2159,16.78635632
2160,16.8129532
2161,16.80247289
2162,16.80136598
2163,16.80625077
2164,16.78472439
2165,16.78045515
2166,16.78730758
2167,16.80041734
2168,16.81071234
2169,16.81035411
2170,16.79783309
2171,16.81189458
2172,16.80984777
2173,16.79158094
2174,16.78779772
2175,16.7987411
2176,16.80276456
2177,16.77556707
2178,16.79539739
2179,16.80547538
2180,16.82071033
2181,16.8046519
2182,16.80428215
2183,16.78213512
2184,16.81725108
2185,16.79881505
2186,16.81478643
2187,16.79199741
2188,16.80718702
2189,16.81645774
2190,16.79339356
2191,16.79022391
2192,16.79962768
2193,16.81130377
2194,16.81714773
2195,16.79255768
2196,16.77957094
2197,16.802957
2198,16.78151747
2199,16.78576277
2200,16.80477436
2201,16.79774591
2202,16.80186493
2203,16.803999
2204,16.78254215
2205,16.79951618
2206,16.81039413
2207,16.81433313
2208,16.78541479
2209,16.80386649
2210,16.80284228
2211,16.81916801
2212,16.78670863
2213,16.78782227
2214,16.80673227
2215,16.7881933
2216,16.79897031
2217,16.79940122
2218,16.79898296
2219,16.80216808
2220,16.79675651
2221,16.80008203
2222,16.79800463
2223,16.79142158
2224,16.8022702
2225,16.76871201
2226,16.81593012
2227,16.82528847
2228,16.77921347
2229,16.82234514
2230,16.79123138
2231,16.838345
2232,16.7999929
2233,16.79773799
2234,16.7852237
2235,16.81333331
2236,16.77477164
2237,16.79598042
2238,16.81251944
2239,16.79468328
2240,16.82325575
2241,16.81858818
2242,16.78807481
2243,16.7876112
2244,16.78523671
2245,16.81164324
2246,16.83792963
2247,16.80774185
2248,16.79178495
2249,16.79711558
2250,16.81144975
2251,16.80701577
2252,16.80388998
2253,16.80645345
2254,16.81003818
2255,16.82343567
2256,16.81392323
2257,16.795036
2258,16.8026332
2259,16.80445227
2260,16.79087157
2261,16.81309014
2262,16.82463483
2263,16.78886451
2264,16.81270614
2265,16.77859774
2266,16.81425924
2267,16.82096333
2268,16.82771865
2269,16.78545123
2270,16.79338546
2271,16.80996504
2272,16.80410781
2273,16.83716709
2274,16.8265192
2275,16.79260873
2276,16.78535627
2277,16.82174536
2278,16.7968243
2279,16.80915577
2280,16.80878214
2281,16.8023277
2282,16.80724728
2283,16.79904178
2284,16.81239342
2285,16.7937138
2286,16.78366246
2287,16.76608775
2288,16.78324435
2289,16.79437221
2290,16.78894615
2291,16.80060488
2292,16.79285336
2293,16.80326315
2294,16.79603452
2295,16.79474764
2296,16.8262875
2297,16.80335386
2298,16.83128714
2299,16.82106829
2300,16.7837134
2301,16.80613332
2302,16.818063
2303,16.79566413
2304,16.80676952
2305,16.79750729
2306,16.81853554
2307,16.78937506
2308,16.80173526
2309,16.82200316
2310,16.8067175
2311,16.7956418
2312,16.81398488
2313,16.78502974
2314,16.788748
2315,16.77814269
2316,16.84738375
2317,16.7998288
2318,16.81799634
2319,16.78505569
2320,16.78641003
2321,16.8046327
2322,16.8180492
2323,16.79588663
2324,16.80041566
2325,16.78497364
2326,16.78641877
2327,16.81352834
2328,16.82562297
2329,16.80730196
2330,16.78683048
2331,16.77110246
2332,16.8105037
2333,16.8142832
2334,16.77605189
2335,16.78275137
2336,16.82088215
2337,16.84018283
2338,16.78078603
2339,16.8192523
2340,16.82099505
2341,16.80782456
2342,16.82876083
2343,16.79386334
2344,16.79887158
2345,16.80148796
2346,16.79351451
2347,16.79587414
2348,16.77974109
2349,16.8233667
2350,16.82533611
2351,16.81687242
2352,16.79405355
2353,16.78012349
2354,16.79201491
2355,16.81456307
2356,16.81187935
2357,16.84168171
2358,16.80421742
2359,16.82116136
2360,16.79244024
2361,16.78340677
2362,16.79023953
2363,16.79765363
2364,16.81188524
2365,16.8081276
2366,16.79397653
2367,16.77442874
2368,16.81690511
2369,16.78420325
2370,16.7965987
2371,16.79946776
2372,16.80371763
2373,16.80569515
2374,16.80035055
2375,16.80230742
2376,16.80279172
2377,16.79129666
2378,16.78492104
2379,16.8009972
2380,16.78115988
2381,16.77348719
2382,16.82346973
2383,16.79295701
2384,16.79225005
2385,16.78682002
2386,16.79387713
2387,16.80979225
2388,16.81038685
2389,16.82130949
2390,16.82787573
2391,16.79421234
2392,16.77402846
2393,16.80545901
2394,16.80309333
2395,16.80778263
2396,16.79984785
2397,16.81742708
2398,16.8016443
2399,16.78641915
2400,16.79888689
2401,16.79271548
2402,16.81938126
2403,16.79174958
2404,16.79256186
2405,16.78975253
2406,16.78233389
2407,16.78983516
2408,16.79183331
2409,16.83012097
2410,16.82133329
2411,16.78560221
2412,16.80187681
2413,16.82394512
2414,16.77707746
2415,16.78758975
2416,16.78502028
2417,16.81827795
2418,16.80250029
2419,16.80622089
2420,16.79386229
2421,16.80180775
2422,16.78824903
2423,16.78093219
2424,16.78010837
2425,16.79491392
2426,16.82074362
2427,16.82248792
2428,16.798904
2429,16.83904049
2430,16.78024077
2431,16.7867144
2432,16.80246824
2433,16.78900339
2434,16.80158983
2435,16.80376538
2436,16.80941945
2437,16.79961008
2438,16.81005865
2439,16.76438105
2440,16.80126618
2441,16.79207021
2442,16.80763083
2443,16.77884239
2444,16.78766059
2445,16.80410054
2446,16.78645418
2447,16.7867731
2448,16.79775688
2449,16.80103323
2450,16.83183766
2451,16.8101022
2452,16.78871994
2453,16.80076142
2454,16.79565884
2455,16.76646766
2456,16.8159195
2457,16.79527088
2458,16.79776305
2459,16.81494046
2460,16.78837868
2461,16.79967752
2462,16.79418304
2463,16.81566733
2464,16.78091036
2465,16.78352732
2466,16.8150646
2467,16.80890968
2468,16.8159722
2469,16.78898148
2470,16.80809189
2471,16.79999523
2472,16.7834821
2473,16.80292778
2474,16.78800456
2475,16.79481794
2476,16.80756632
2477,16.8185935
2478,16.8153519
2479,16.77070148
2480,16.82247391
2481,16.80655315
2482,16.78484411
2483,16.78895808
2484,16.78946055
2485,16.77715269
2486,16.79484582
2487,16.76333527
2488,16.79886694
2489,16.78543296
2490,16.82958272
2491,16.79812123
2492,16.8091812
2493,16.78750762
2494,16.81177766
2495,16.81782991
2496,16.78266173
2497,16.82503045
2498,16.7918676
2499,16.77224398
2500,16.80350034
2501,16.7819524
2502,16.80436496
2503,16.80407182
2504,16.78440743
2505,16.79756875
2506,16.81828824
2507,16.81476329
2508,16.80788887
2509,16.80344449
2510,16.81971999
2511,16.8197578
2512,16.78758382
2513,16.81500161
2514,16.81514891
2515,16.78320502
2516,16.8282397
2517,16.81244056
2518,16.83422421
2519,16.77515508
2520,16.81140591
2521,16.78141533
2522,16.8212035
2523,16.80384389
2524,16.80565053
2525,16.80126596
2526,16.82029143
2527,16.78150088
2528,16.81679097
2529,16.80512269
2530,16.80653769
2531,16.80879039
2532,16.78784775
2533,16.81741422
2534,16.81437713
2535,16.80612948
2536,16.79678859
2537,16.78795455
2538,16.78352954
2539,16.80752245
2540,16.80882359
2541,16.81198225
2542,16.80015218
2543,16.79426679
2544,16.79698309
2545,16.80146206
2546,16.79957896
2547,16.78916107
2548,16.83006497
2549,16.81803088
2550,16.81399563
2551,16.81665659
2552,16.77574455
2553,16.79356477
2554,16.80814253
2555,16.79841205
2556,16.81893992
2557,16.76999349
2558,16.81114593
2559,16.81331206
2560,16.77848761
2561,16.82047119
2562,16.80594395
2563,16.7970131
2564,16.81292627
2565,16.79572879
2566,16.79767768
2567,16.77894949
2568,16.77710166
2569,16.78735953
2570,16.79995653
2571,16.81190756
2572,16.791899
2573,16.78280651
2574,16.80088732
2575,16.8048387
2576,16.76821105
2577,16.79837836
2578,16.7767371
2579,16.78791317
2580,16.79787333
2581,16.8263884
2582,16.77482414
2583,16.81386972
2584,16.79225629
2585,16.77776716
2586,16.82729047
2587,16.80336207
2588,16.81352986
2589,16.7795347
2590,16.78675468
2591,16.76615266
2592,16.80583609
2593,16.81744357
2594,16.83139274
2595,16.80095408
2596,16.81901034
2597,16.81021242
2598,16.81102601
2599,16.80184024
2600,16.7976223
2601,16.81854623
2602,16.79745988
2603,16.79611213
2604,16.82583261
2605,16.79997239
2606,16.79435301
2607,16.79210407
2608,16.77946943
2609,16.78760775
2610,16.78462844
2611,16.7516804
2612,16.80736433
2613,16.8011597
2614,16.8160408
2615,16.80506954
2616,16.79572808
2617,16.80249949
2618,16.82055678
2619,16.78523552
2620,16.81249824
2621,16.79899717
2622,16.83146349
2623,16.79944848
2624,16.78131544
2625,16.79706324
2626,16.79062896
2627,16.76991258
2628,16.80211405
2629,16.80346761
2630,16.79476528
2631,16.78385464
2632,16.77496332
2633,16.79014
2634,16.80501362
2635,16.78630163
2636,16.78463531
2637,16.79430585
2638,16.79628892
2639,16.80999259
2640,16.7955847
2641,16.77212358
2642,16.79047441
2643,16.7915076
2644,16.76485566
2645,16.79450693
2646,16.80910235
2647,16.80527937
2648,16.81756839
2649,16.78112472
2650,16.79279931
2651,16.77579849
2652,16.7770988
2653,16.77295921
2654,16.79640273
2655,16.78242036
2656,16.80889084
2657,16.79703512
2658,16.7956938
2659,16.76595538
2660,16.78998276
2661,16.81037706
2662,16.80490787
2663,16.795764
2664,16.79651283
2665,16.82247911
2666,16.79813432
2667,16.81141957
2668,16.81079203
2669,16.80170756
2670,16.77121786
2671,16.82508725
2672,16.80262795
2673,16.80267555
2674,16.77246988
2675,16.82554563
2676,16.81484821
2677,16.80284002
2678,16.80345583
2679,16.81042711
2680,16.8135763
2681,16.79900364
2682,16.79000159
2683,16.82236804
2684,16.80615421
2685,16.81777707
2686,16.77928319
2687,16.79508966
2688,16.80661472
2689,16.79953163
2690,16.79725266
2691,16.79173594
2692,16.76160649
2693,16.81408779
2694,16.78032331
2695,16.80612314
2696,16.81470678
2697,16.80034731
2698,16.82066397
2699,16.83073204
2700,16.808404
2701,16.79971102
2702,16.78405866
2703,16.79160966
2704,16.80211371
2705,16.81113093
2706,16.80055799
2707,16.82405865
2708,16.7789113
2709,16.82108318
2710,16.80118902
2711,16.78162803
2712,16.80438409
2713,16.81879865
2714,16.79270551
2715,16.82234279
2716,16.79945393
2717,16.80722434
2718,16.78930495
2719,16.80619696
2720,16.79776418
2721,16.85737277
2722,16.8060005
2723,16.79076421
2724,16.79547783
2725,16.78673751
2726,16.80149435
2727,16.77893433
2728,16.79034897
2729,16.80532143
2730,16.78729545
2731,16.7991455
2732,16.78907104
2733,16.80299205
2734,16.83393924
2735,16.78743607
2736,16.78263442
2737,16.78876016
2738,16.79053865
2739,16.79533009
2740,16.80279098
2741,16.79853952
2742,16.78698962
2743,16.78696524
2744,16.84618655
2745,16.78900416
2746,16.80861638
2747,16.79187745
2748,16.78793137
2749,16.81287569
2750,16.79694259
2751,16.81337428
2752,16.81411925
2753,16.83082234
2754,16.80835486
2755,16.81467156
2756,16.80893493
2757,16.80525564
2758,16.79474012
2759,16.82730296
2760,16.77642264
2761,16.79016342
2762,16.82419932
2763,16.79565453
2764,16.82535878
2765,16.7917666
2766,16.78481609
2767,16.79191478
2768,16.80930166
2769,16.80527955
2770,16.79295218
2771,16.81255965
2772,16.8096134
2773,16.83714608
2774,16.82150592
2775,16.80897056
2776,16.82127185
2777,16.81003034
2778,16.79328469
2779,16.79740022
2780,16.81234666
2781,16.79380454
2782,16.80240692
2783,16.78846384
2784,16.81442088
2785,16.81676375
2786,16.78340056
2787,16.80160642
2788,16.78864667
2789,16.81312888
2790,16.79647209
2791,16.80955279
2792,16.80890895
2793,16.83575745
2794,16.79310477
2795,16.81504954
2796,16.83390243
2797,16.78923617
2798,16.80414745
2799,16.82907687
2800,16.80687213
2801,16.78537613
2802,16.8209027
2803,16.813878
2804,16.80560564
2805,16.79175853
2806,16.81525901
2807,16.77507573
2808,16.81216363
2809,16.80316955
2810,16.81943135
2811,16.79316212
2812,16.75360858
2813,16.76590808
2814,16.79858054
2815,16.78598774
2816,16.78672388
2817,16.7759399
2818,16.81768189
2819,16.80220224
2820,16.7748404
2821,16.81180426
2822,16.80370613
2823,16.79856626
2824,16.80156477
2825,16.80711578
2826,16.75816004
2827,16.80014824
2828,16.80644276
2829,16.81185365
2830,16.79463672
2831,16.78492549
2832,16.79370124
2833,16.78138142
2834,16.80076576
2835,16.80521334
2836,16.80452514
2837,16.79296206
2838,16.79550865
2839,16.79336632
2840,16.78529141
2841,16.79536767
2842,16.79475183
2843,16.78320688
2844,16.81333587
2845,16.80462637
2846,16.8071076
2847,16.80031357
2848,16.83462105
2849,16.79558264
2850,16.79919989
2851,16.83189369
2852,16.79327404
2853,16.81592386
2854,16.77524451
2855,16.7865165
2856,16.8039385
2857,16.81788017
2858,16.82339953
2859,16.79067696
2860,16.79110317
2861,16.80214047
2862,16.8216177
2863,16.78543487
2864,16.80155936
2865,16.78269253
2866,16.80104602
2867,16.79914835
2868,16.80182102
2869,16.77566657
2870,16.798791
2871,16.78892187
2872,16.79726816
2873,16.78565633
2874,16.80953085
2875,16.77128913
2876,16.81747484
2877,16.8125383
2878,16.8189354
2879,16.79668954
2880,16.78342008
2881,16.78138487
2882,16.78352089
2883,16.80383712
2884,16.8108034
2885,16.79142945
2886,16.78310125
2887,16.81506879
2888,16.80081046
2889,16.79928378
2890,16.78639083
2891,16.79024888
2892,16.81271987
2893,16.78881824
2894,16.79240628
2895,16.81404548
2896,16.79493653
2897,16.81430581
2898,16.81065756
2899,16.77551088
2900,16.77550085
2901,16.80407484
2902,16.80766737
2903,16.78631621
2904,16.80745282
2905,16.80069486
2906,16.79185989
2907,16.77850665
2908,16.801146
2909,16.79583389
2910,16.79031914
2911,16.78965968
2912,16.81640381
2913,16.79966287
2914,16.79178309
2915,16.80777879
2916,16.79573456
2917,16.81609323
2918,16.81813893
2919,16.78770881
2920,16.78916366
2921,16.82543705
2922,16.78334596
2923,16.80724608
2924,16.81236974
2925,16.80296314
2926,16.81331467
2927,16.8026688
2928,16.77905005
2929,16.79655815
2930,16.79171411
2931,16.81133634
2932,16.81832526
2933,16.76426597
2934,16.80120704
2935,16.81096919
2936,16.80252142
2937,16.7893534
2938,16.80327578
2939,16.77898133
2940,16.80667619
2941,16.80774474
2942,16.77602057
2943,16.80587638
2944,16.77561221
2945,16.81108093
2946,16.79813275
2947,16.80856267
2948,16.81463699
2949,16.8257131
2950,16.78996074
2951,16.77146591
2952,16.78979665
2953,16.78979245
2954,16.80455439
2955,16.80498237
2956,16.81244843
2957,16.81279367
2958,16.7629391
2959,16.79421666
2960,16.79421504
2961,16.78023035
2962,16.79064235
2963,16.80802365
2964,16.76085648
2965,16.77572839
2966,16.8033339
2967,16.80983014
2968,16.80794553
2969,16.77075463
2970,16.82301249
2971,16.79314723
2972,16.80773503
2973,16.81347253
2974,16.81873152
2975,16.76955802
2976,16.81116912
2977,16.79361972
2978,16.81686207
2979,16.79896723
2980,16.81220797
2981,16.80151283
2982,16.79963941
2983,16.79643156
2984,16.78277101
2985,16.81404185
2986,16.78554706
2987,16.79939753
2988,16.77892949
2989,16.80938181
2990,16.82086866
2991,16.80350557
2992,16.82520049
2993,16.8275787
2994,16.80708866
2995,16.80526702
2996,16.78994021
2997,16.77768093
2998,16.78736757
2999,16.80674001
3000,16.79630664
3001,16.83081169
3002,16.80987686
3003,16.76182064
3004,16.79397628
3005,16.79931285
3006,16.81176064
3007,16.81308188
3008,16.79911556
3009,16.83928603
3010,16.80426433
3011,16.80640975
3012,16.81818194
3013,16.80281491
3014,16.82216723
3015,16.7933178
3016,16.80701759
3017,16.80605632
3018,16.81994677
3019,16.79676812
3020,16.80858993
3021,16.79623723
3022,16.78486151
3023,16.78099897
3024,16.77911633
3025,16.79182825
3026,16.79850914
3027,16.79061393
3028,16.83897167
3029,16.79300396
3030,16.80188183
3031,16.79177441
3032,16.79745978
3033,16.81677844
3034,16.76371806
3035,16.81293919
3036,16.8037845
3037,16.81005042
3038,16.79484195
3039,16.80547557
3040,16.78413725
3041,16.81107274
3042,16.79300337
3043,16.7823098
3044,16.81356075
3045,16.80498748
3046,16.78918422
3047,16.79568705
3048,16.81709182
3049,16.8362953
3050,16.80276652
3051,16.78211348
3052,16.80180368
3053,16.81023622
3054,16.79235862
3055,16.78917226
3056,16.82289869
3057,16.82031899
3058,16.78729934
3059,16.80707462
3060,16.7970894
3061,16.78901989
3062,16.80897531
3063,16.78856799
3064,16.81214373
3065,16.81307671
3066,16.80196969
3067,16.78737186
3068,16.78007738
3069,16.78810836
3070,16.78013897
3071,16.81017049
3072,16.78207044
3073,16.80890943
3074,16.81104194
3075,16.7978004
3076,16.81571531
3077,16.79700873
3078,16.79832923
3079,16.80667781
3080,16.78631884
3081,16.79575075
3082,16.80785869
3083,16.78104371
3084,16.81009539
3085,16.79773289
3086,16.79142991
3087,16.78678937
3088,16.78613344
3089,16.80489822
3090,16.799503
3091,16.79261877
3092,16.79273172
3093,16.80921087
3094,16.80574127
3095,16.78993558
3096,16.79103707
3097,16.77360809
3098,16.76742653
3099,16.81624239
3100,16.81529789
3101,16.77215492
3102,16.82062357
3103,16.80845037
3104,16.79250038
3105,16.772343
3106,16.80785984
3107,16.79690172
3108,16.78200984
3109,16.79113677
3110,16.81160373
3111,16.81664761
3112,16.83143905
3113,16.78386986
3114,16.80850843
3115,16.81635829
3116,16.78622341
3117,16.79353194
3118,16.78431734
3119,16.80855572
3120,16.81684239
3121,16.78093377
3122,16.80596817
3123,16.81879081
3124,16.78953118
3125,16.81733951
3126,16.78057991
3127,16.81428065
3128,16.82702445
3129,16.80870266
3130,16.80033841
3131,16.81050134
3132,16.80092884
3133,16.79901903
3134,16.79976287
3135,16.78912034
3136,16.79885739
3137,16.80842157
3138,16.82707065
3139,16.79829493
3140,16.80320355
3141,16.79479584
3142,16.82110403
3143,16.79191917
3144,16.84114243
3145,16.7803482
3146,16.79537913
3147,16.79031594
3148,16.79338123
3149,16.8050087
3150,16.82119916
3151,16.79904469
3152,16.78415281
3153,16.802429
3154,16.82610961
3155,16.80884888
3156,16.80311314
3157,16.79011848
3158,16.79405977
3159,16.80784203
3160,16.82016494
3161,16.80288988
3162,16.78287733
3163,16.8071584
3164,16.80063684
3165,16.82404554
3166,16.79345371
3167,16.80605368
3168,16.7674887
3169,16.77983759
3170,16.79815459
3171,16.7935696
3172,16.80569253
3173,16.82216897
3174,16.81834183
3175,16.78311998
3176,16.78353829
3177,16.82367504
3178,16.82361373
3179,16.80753532
3180,16.77153916
3181,16.80619848
3182,16.80185786
3183,16.81067021
3184,16.79906681
3185,16.81030332
3186,16.79337319
3187,16.8151234
3188,16.79811019
3189,16.79547574
3190,16.80533871
3191,16.80469299
3192,16.7831872
3193,16.80104439
3194,16.80292286
3195,16.8059598
3196,16.80397762
3197,16.80929582
3198,16.80138858
3199,16.77630217
3200,16.78594608
3201,16.77838863
3202,16.76052931
3203,16.78286691
3204,16.84177555
3205,16.80113681
3206,16.79603668
3207,16.79450386
3208,16.81801624
3209,16.8075053
3210,16.79646327
3211,16.81296557
3212,16.79358956
3213,16.7599582
3214,16.82111979
3215,16.81673462
3216,16.80331494
3217,16.80013502
3218,16.78404832
3219,16.78096855
3220,16.81265028
3221,16.79384273
3222,16.78114671
3223,16.77476979
3224,16.80308667
3225,16.7730343
3226,16.80444699
3227,16.81024628
3228,16.80007524
3229,16.81084436
3230,16.81980592
3231,16.79240124
3232,16.79144367
3233,16.79427293
3234,16.81549544
3235,16.79798189
3236,16.80513688
3237,16.78934211
3238,16.81830812
3239,16.79587871
3240,16.81813011
3241,16.81812155
3242,16.77653265
3243,16.81352542
3244,16.79840481
3245,16.80242097
3246,16.78542796
3247,16.84968033
3248,16.81153903
3249,16.80990358
3250,16.78415337
3251,16.79346536
3252,16.7758262
3253,16.81013948
3254,16.79703504
3255,16.79060331
3256,16.80953314
3257,16.78810977
3258,16.81073701
3259,16.81450209
3260,16.81827913
3261,16.7973602
3262,16.77647318
3263,16.77273994
3264,16.76743055
3265,16.81512648
3266,16.79229912
3267,16.81492626
3268,16.77779877
3269,16.76916008
3270,16.78831644
3271,16.78170867
3272,16.78662828
3273,16.76597272
3274,16.81663124
3275,16.82375951
3276,16.80260394
3277,16.80129414
3278,16.78239455
3279,16.78172205
3280,16.77742815
3281,16.80635243
3282,16.80165108
3283,16.77359023
3284,16.79796158
3285,16.81131974
3286,16.78115676
3287,16.80392353
3288,16.79120489
3289,16.77749168
3290,16.77556819
3291,16.83160583
3292,16.80994015
3293,16.79408785
3294,16.76721429
3295,16.78238665
3296,16.79035445
3297,16.77922684
3298,16.80543552
3299,16.80679673
3300,16.81521263
3301,16.80179797
3302,16.76920577
3303,16.78446532
3304,16.79367304
3305,16.80106602
3306,16.80439683
3307,16.80367703
3308,16.80483929
3309,16.80020204
3310,16.81480658
3311,16.77781608
3312,16.8031532
3313,16.78678144
3314,16.78861691
3315,16.80045881
3316,16.77083119
3317,16.7778285
3318,16.7989361
3319,16.80765767
3320,16.82448981
3321,16.81465564
3322,16.78745702
3323,16.81815222
3324,16.78686063
3325,16.8235231
3326,16.79930124
3327,16.8170155
3328,16.80009127
3329,16.8135466
3330,16.81583225
3331,16.79271867
3332,16.79004976
3333,16.7863598
3334,16.80943959
3335,16.75887078
3336,16.81073865
3337,16.77629814
3338,16.80960537
3339,16.80307682
3340,16.80725606
3341,16.76616784
3342,16.80168987
3343,16.80254353
3344,16.80600204
3345,16.79108388
3346,16.79358474
3347,16.79194633
3348,16.78870993
3349,16.80604474
3350,16.79765993
3351,16.78719847
3352,16.79237055
3353,16.78342627
3354,16.81822256
3355,16.81198676
3356,16.79764632
3357,16.82021463
3358,16.80543857
3359,16.81225341
3360,16.80642171
3361,16.80739819
3362,16.78307282
3363,16.80569151
3364,16.77270227
3365,16.81081632
3366,16.78964785
3367,16.79117614
3368,16.79836689
3369,16.82109101
3370,16.77588926
3371,16.81691986
3372,16.7828522
3373,16.82944738
3374,16.81222448
3375,16.81384592
3376,16.79575783
3377,16.78956752
3378,16.80454349
3379,16.78516981
3380,16.78112472
3381,16.7950311
3382,16.8111582
3383,16.7994941
3384,16.76944996
3385,16.81927365
3386,16.79938497
3387,16.8109603
3388,16.8237442
3389,16.80169184
3390,16.82583271
3391,16.80992194
3392,16.79280959
3393,16.8258215
3394,16.77907164
3395,16.81458634
3396,16.81524629
3397,16.81248644
3398,16.80453859
3399,16.79295468
3400,16.80962106
3401,16.80020597
3402,16.80633372
3403,16.76503878
3404,16.79164652
3405,16.80338297
3406,16.7987972
3407,16.77174947
3408,16.80252378
3409,16.76661325
3410,16.80287669
3411,16.81187764
3412,16.79200446
3413,16.78524649
3414,16.80745222
3415,16.79564849
3416,16.8174131
3417,16.78707677
3418,16.7840384
3419,16.7858664
3420,16.78095334
3421,16.79033854
3422,16.81498813
3423,16.79561932
3424,16.81282083
3425,16.79089509
3426,16.79506021
3427,16.80329164
3428,16.78980099
3429,16.80353589
3430,16.80679645
3431,16.82382809
3432,16.81790525
3433,16.83203768
3434,16.78941783
3435,16.80900479
3436,16.82821577
3437,16.78961274
3438,16.80090793
3439,16.79893577
3440,16.8091995
3441,16.79757068
3442,16.83030687
3443,16.78493669
3444,16.78981121
3445,16.79391679
3446,16.778942
3447,16.79736948
3448,16.80161857
3449,16.78054664
3450,16.79866136
3451,16.83125684
3452,16.77816473
3453,16.78290643
3454,16.80724702
3455,16.77201857
3456,16.7981302
3457,16.79585488
3458,16.80567954
3459,16.8155051
3460,16.76543036
3461,16.78195457
3462,16.79860315
3463,16.7972927
3464,16.7774737
3465,16.81240194
3466,16.82305833
3467,16.79282725
3468,16.78512469
3469,16.81297007
3470,16.78560086
3471,16.82181864
3472,16.77843951
3473,16.80381455
3474,16.78162378
3475,16.82917093
3476,16.79413023
3477,16.81071657
3478,16.79512772
3479,16.78450798
3480,16.80464075
3481,16.79348745
3482,16.79200121
3483,16.81354647
3484,16.7920521
3485,16.7882661
3486,16.80480443
3487,16.79915367
3488,16.80861858
3489,16.80508913
3490,16.79854323
3491,16.77558533
3492,16.81193528
3493,16.81582064
3494,16.78718916
3495,16.80364995
3496,16.79756473
3497,16.81104034
3498,16.80325169
3499,16.8027697
3500,16.78128825
3501,16.78005324
3502,16.79348773
3503,16.77826627
3504,16.80512055
3505,16.78170224
3506,16.79252839
3507,16.80348239
3508,16.81503726
3509,16.81374474
3510,16.8147064
3511,16.81722541
3512,16.81108168
3513,16.81425937
3514,16.80584919
3515,16.79776944
3516,16.79812258
3517,16.78330636
3518,16.78497565
3519,16.81086198
3520,16.79501074
3521,16.79131967
3522,16.81776669
3523,16.82494917
3524,16.80507865
3525,16.79523906
3526,16.78381387
3527,16.79767543
3528,16.80098348
3529,16.76583079
3530,16.81775302
3531,16.801491
3532,16.79708771
3533,16.81391844
3534,16.78402983
3535,16.79281619
3536,16.77854072
3537,16.78352989
3538,16.79159963
3539,16.82159927
3540,16.78516854
3541,16.78229993
3542,16.79367546
3543,16.80687627
3544,16.80147229
3545,16.77470253
3546,16.780397
3547,16.79473123
3548,16.78843652
3549,16.76927956
3550,16.82045724
3551,16.82232361
3552,16.80352293
3553,16.7903747
3554,16.80791663
3555,16.7840723
3556,16.79801815
3557,16.80796233
3558,16.82692419
3559,16.80593256
3560,16.78817309
3561,16.82925474
3562,16.82990145
3563,16.80633794
3564,16.80289712
3565,16.8093935
3566,16.78545863
3567,16.79221296
3568,16.80087842
3569,16.80648745
3570,16.82556528
3571,16.77747539
3572,16.81030849
3573,16.81262803
3574,16.79968847
3575,16.82368412
3576,16.82021161
3577,16.82697466
3578,16.76880916
3579,16.77897683
3580,16.79508962
3581,16.81319344
3582,16.79503976
3583,16.80347923
3584,16.78749311
3585,16.80634727
3586,16.76458828
3587,16.79672794
3588,16.78588179
3589,16.80601656
3590,16.7808867
3591,16.81692961
3592,16.80239581
3593,16.81013606
3594,16.79568626
3595,16.80557368
3596,16.77726503
3597,16.8227702
3598,16.80163703
3599,16.79622567
3600,16.79415518
3601,16.80710507
3602,16.80769574
3603,16.79275515
3604,16.8087414
3605,16.78151089
3606,16.81068533
3607,16.78542536
3608,16.79322778
3609,16.8092295
3610,16.81360231
3611,16.77121054
3612,16.8304166
3613,16.82109929
3614,16.79566334
3615,16.81086145
3616,16.81465526
3617,16.77046807
3618,16.79472153
3619,16.78812559
3620,16.80173196
3621,16.82683032
3622,16.80863706
3623,16.79285069
3624,16.79600244
3625,16.79177723
3626,16.7885525
3627,16.76941717
3628,16.79480282
3629,16.78500553
3630,16.81271366
3631,16.82577605
3632,16.82188841
3633,16.82599828
3634,16.7869547
3635,16.78374989
3636,16.80849252
3637,16.78869727
3638,16.80600381
3639,16.82045223
3640,16.79768444
3641,16.80346224
3642,16.79543484
3643,16.82328775
3644,16.80171721
3645,16.82586603
3646,16.80016875
3647,16.81989511
3648,16.79842189
3649,16.80108856
3650,16.81166911
3651,16.80811839
3652,16.79659205
3653,16.81731692
3654,16.80347396
3655,16.82695178
3656,16.76784484
3657,16.80921233
3658,16.80026203
3659,16.7946655
3660,16.76679304
3661,16.79703751
3662,16.77357612
3663,16.81994612
3664,16.78432203
3665,16.81796836
3666,16.79457885
3667,16.78106359
3668,16.77522852
3669,16.78598995
3670,16.81784707
3671,16.77518803
3672,16.79077706
3673,16.79204964
3674,16.81224324
3675,16.81857945
3676,16.78648037
3677,16.78684428
3678,16.80130052
3679,16.80399577
3680,16.8498064
3681,16.77734227
3682,16.80119766
3683,16.78279419
3684,16.80075496
3685,16.76254277
3686,16.79387204
3687,16.82584707
3688,16.76858506
3689,16.80188895
3690,16.79907801
3691,16.81281798
3692,16.80368122
3693,16.79264872
3694,16.78879634
3695,16.82866132
3696,16.80198562
3697,16.81277317
3698,16.77271043
3699,16.80396806
3700,16.79770479
3701,16.80995374
3702,16.80596742
3703,16.8091777
3704,16.77798277
3705,16.82424924
3706,16.80234783
3707,16.80696475
3708,16.82009039
3709,16.79893351
3710,16.80920519
3711,16.82809646
3712,16.80472074
3713,16.7826744
3714,16.81571944
3715,16.79232946
3716,16.81067233
3717,16.78480055
3718,16.79440136
3719,16.80546912
3720,16.81220719
3721,16.80319262
3722,16.8078057
3723,16.8359602
3724,16.81493752
3725,16.81133193
3726,16.79975886
3727,16.79717927
3728,16.79869565
3729,16.77206118
3730,16.7997347
3731,16.77926509
3732,16.78120599
3733,16.81950201
3734,16.81153924
3735,16.82389002
3736,16.78496229
3737,16.76074735
3738,16.7552318
3739,16.77819871
3740,16.79593777
3741,16.81620513
3742,16.81093185
3743,16.78843363
3744,16.81168527
3745,16.7860912
3746,16.80600706
3747,16.76687196
3748,16.81116424
3749,16.80217771
3750,16.7776253
3751,16.79032116
3752,16.83844868
3753,16.81406106
3754,16.80989441
3755,16.80885642
3756,16.79408634
3757,16.8149934
3758,16.82616295
3759,16.79987246
3760,16.80658981
3761,16.79049253
3762,16.79060694
3763,16.80818125
3764,16.82760777
3765,16.78293339
3766,16.78557035
3767,16.79978195
3768,16.82583309
3769,16.79903097
3770,16.79175798
3771,16.8144288
3772,16.80232301
3773,16.83409942
3774,16.8102499
3775,16.81990447
3776,16.79856861
3777,16.82294673
3778,16.8036649
3779,16.81546564
3780,16.79422742
3781,16.81593528
3782,16.83881201
3783,16.79100204
3784,16.79917084
3785,16.76481901
3786,16.80202355
3787,16.80487576
3788,16.79228613
3789,16.78071328
3790,16.7882655
3791,16.80961675
3792,16.82048633
3793,16.80436225
3794,16.8154454
3795,16.80720513
3796,16.83162771
3797,16.80030573
3798,16.8334576
3799,16.81122908
3800,16.81512577
3801,16.80735156
3802,16.82494331
3803,16.80811215
3804,16.81775963
3805,16.79481148
3806,16.82027086
3807,16.81314251
3808,16.783367
3809,16.81589997
3810,16.80393059
3811,16.82711863
3812,16.78549167
3813,16.76822531
3814,16.81993904
3815,16.79476422
3816,16.82054692
3817,16.79774124
3818,16.80475616
3819,16.80927757
3820,16.79963739
3821,16.79578198
3822,16.80582207
3823,16.79482262
3824,16.78840295
3825,16.80351418
3826,16.82056522
3827,16.79601022
3828,16.7978692
3829,16.79957868
3830,16.77990981
3831,16.81406602
3832,16.81050945
3833,16.79588683
3834,16.77421205
3835,16.79047999
3836,16.77985791
3837,16.78297291
3838,16.80669077
3839,16.75559299
3840,16.790614
3841,16.81123683
3842,16.79312672
3843,16.77143769
3844,16.81424341
3845,16.78310347
3846,16.80377844
3847,16.76988032
3848,16.7850216
3849,16.77639663
3850,16.78503695
3851,16.80523447
3852,16.83985708
3853,16.79552034
3854,16.79744879
3855,16.79105743
3856,16.79103332
3857,16.80183898
3858,16.81323073
3859,16.79777966
3860,16.77476981
3861,16.80355975
3862,16.80394309
3863,16.82261544
3864,16.79529518
3865,16.80900589
3866,16.80691832
3867,16.79334212
3868,16.81093623
3869,16.81086545
3870,16.80023955
3871,16.79588263
3872,16.79749698
3873,16.80061449
3874,16.79904408
3875,16.814407
3876,16.80590611
3877,16.775388
3878,16.80321678
3879,16.79285721
3880,16.78421792
3881,16.80468883
3882,16.78687512
3883,16.8107934
3884,16.78127332
3885,16.83140866
3886,16.80343383
3887,16.80806583
3888,16.8030047
3889,16.81201293
3890,16.78172397
3891,16.81792043
3892,16.80622372
3893,16.80222836
3894,16.80098645
3895,16.8040591
3896,16.8083893
3897,16.78178406
3898,16.81666554
3899,16.79176345
3900,16.78578355
3901,16.80414988
3902,16.81038913
3903,16.76364424
3904,16.77361981
3905,16.79669991
3906,16.81371487
3907,16.80355866
3908,16.77858691
3909,16.80154805
3910,16.78410793
3911,16.81873437
3912,16.78324262
3913,16.80378512
3914,16.80153252
3915,16.80574612
3916,16.78156539
3917,16.80051014
3918,16.80410442
3919,16.79445285
3920,16.80731916
3921,16.81529321
3922,16.82740587
3923,16.79775955
3924,16.80016636
3925,16.82125545
3926,16.78864105
3927,16.78811619
3928,16.80369706
3929,16.7993109
3930,16.79585879
3931,16.81069102
3932,16.80517485
3933,16.77684699
3934,16.78473807
3935,16.80221021
3936,16.79420765
3937,16.81324104
3938,16.81038914
3939,16.79946274
3940,16.82009736
3941,16.78908003
3942,16.81751398
3943,16.80281572
3944,16.80432655
3945,16.80352962
3946,16.82723222
3947,16.77046013
3948,16.77969062
3949,16.8131961
3950,16.80528616
3951,16.76875003
3952,16.77106888
3953,16.80025384
3954,16.78591317
3955,16.80537441
3956,16.83324007
3957,16.780317
3958,16.8192716
3959,16.83572507
3960,16.75953747
3961,16.80468085
3962,16.81417823
3963,16.78308944
3964,16.81319352
3965,16.79976279
3966,16.80924405
3967,16.81478904
3968,16.81787156
3969,16.77012249
3970,16.8069832
3971,16.81405704
3972,16.79814877
3973,16.81450825
3974,16.8044395
3975,16.78840111
3976,16.79188058
3977,16.80936958
3978,16.76926845
3979,16.82364997
3980,16.82364613
3981,16.77900842
3982,16.7930762
3983,16.79097871
3984,16.82488381
3985,16.81134166
3986,16.77316803
3987,16.79656756
3988,16.80064307
3989,16.79520115
3990,16.81950194
3991,16.80356658
3992,16.79329438
3993,16.79478011
3994,16.78652167
3995,16.82329054
3996,16.80409946
3997,16.80678951
3998,16.7862574
3999,16.8091693
4000,16.79068249
