Wavenumber (cm⁻¹),Intensity
200.0,35.12
201.00097751710655,31.631593352883677
202.0019550342131,28.143186705767356
203.00293255131965,24.654780058651035
204.0039100684262,21.166373411534714
205.00488758553274,17.677966764418393
206.0058651026393,14.189560117302072
207.00684261974584,10.70115347018575
208.0078201368524,7.212746823069429
209.00879765395894,3.724340175953107
210.00977517106548,0.34422287390022577
211.01075268817203,7.951569892473038
212.01173020527858,16.13779472140759
213.01270772238513,19.32693059628543
214.01368523949168,19.72384946236558
215.01466275659823,20.76037243401756
216.01564027370478,23.380118279569853
217.01661779081132,25.999291300097724
218.01759530791787,27.88217888563047
219.01857282502445,29.64439589442817
220.019550342131,30.787531769305968
221.02052785923755,31.44597067448682
222.0215053763441,33.011096774193604
223.02248289345064,39.298473118279624
224.0234604105572,45.52104985337247
225.02443792766374,50.41828445747804
226.0254154447703,54.8729061583578
227.02639296187684,60.10099706744871
228.02737047898339,66.54788269794723
229.02834799608993,73.0264281524927
230.02932551319648,81.09207038123168
231.03030303030303,89.02745454545456
232.03128054740958,92.97352688172043
233.03225806451613,94.83687096774193
234.03323558162268,95.35629227761487
235.03421309872923,93.055
236.03519061583577,90.86078299120236
237.03616813294232,84.63552883675467
238.03714565004887,77.8900215053764
239.03812316715542,70.15901466275666
240.03910068426197,60.476434017595366
241.04007820136852,51.689681329423316
242.04105571847506,45.55711436950152
243.0420332355816,39.30824731182802
244.0430107526882,33.38777419354829
245.04398826979474,27.60000879765388
246.0449657869013,23.167903225806405
247.04594330400784,20.294234604105526
248.04692082111438,17.423524926686177
249.04789833822093,14.554819159335251
250.04887585532748,11.733425219941324
251.04985337243403,9.813782991202329
252.05083088954058,8.231311827956974
253.05180840664713,6.813798631476039
254.05278592375367,5.651085043988259
255.05376344086022,4.518591397849456
256.05474095796677,3.78498435972629
257.0557184750733,3.05338123167155
258.05669599217987,2.323838709677416
259.0576735092864,1.604684261974582
260.05865102639297,1.0267565982404683
261.0596285434995,0.732707722385141
262.06060606060606,0.4704848484848488
263.0615835777126,0.7027126099706754
264.06256109481916,1.788147605083089
265.0635386119257,2.1254692082111437
266.06451612903226,1.9751290322580648
267.0654936461388,1.8217829912023464
268.06647116324535,1.6653646138807434
269.0674486803519,1.5563343108504373
270.06842619745845,2.161008797653955
271.069403714565,2.7681720430107557
272.07038123167155,2.226158357771271
273.0713587487781,0.8288367546432122
274.07233626588464,0.17748778103616472
275.0733137829912,0.5797067448680285
276.07429130009774,1.1507214076246417
277.0752688172043,0.4486666666666649
278.07624633431084,0.6213548387096726
279.0772238514174,0.9577712609970708
280.07820136852393,0.7245591397849469
281.0791788856305,0.7658709677419199
282.08015640273703,1.800961876832828
283.0811339198436,2.8370547409579494
284.08211143695013,3.8741495601172837
285.0830889540567,4.895462365591382
286.0840664711632,5.7134486803518945
287.0850439882698,6.330979472140749
288.0860215053764,7.033204301075306
289.0869990224829,8.070956989247348
290.0879765395895,9.10579178885634
291.088954056696,10.13853372434021
292.0899315738026,11.185806451612942
293.0909090909091,12.429181818181863
294.09188660801567,13.875230694037185
295.0928641251222,15.158625610948208
296.09384164222877,15.758398826979489
297.0948191593353,16.328411534701864
298.09579667644186,16.58795601173021
299.0967741935484,16.746741935483872
300.09775171065496,16.710855327468224
301.0987292277615,16.468649071358744
302.09970674486806,16.310545454545462
303.1006842619746,16.497029325513203
304.10166177908116,16.72057575757577
305.1026392961877,17.25794428152494
306.10361681329425,17.90186217008799
307.1045943304008,18.746556207233645
308.10557184750735,19.810290322580666
309.1065493646139,20.96286510263932
310.10752688172045,22.45564516129035
311.108504398827,23.988214076246365
312.10948191593354,25.835971652003938
313.1104594330401,27.7922492668622
314.11143695014664,29.995674486803548
315.1124144672532,32.41577614858263
316.11339198435974,34.93171358748781
317.1143695014663,37.779809384164246
318.11534701857283,40.704597262952134
319.1163245356794,44.27779667644187
320.11730205278593,48.06779472140766
321.1182795698925,52.49598924731186
322.119257086999,57.548933528836784
323.1202346041056,63.136120234604135
324.1212121212121,70.30512121212124
325.1221896383187,77.56344281524929
326.1231671554252,85.4804164222874
327.12414467253177,93.59792766373413
328.1251221896383,102.39013880742914
329.12609970674487,111.78671260997066
330.1270772238514,121.9123626588465
331.12805474095796,133.8326197458455
332.1290322580645,145.7010967741935
333.13000977517106,157.23112218963828
334.1309872922776,168.52574193548384
335.13196480938416,178.38856304985333
336.1329423264907,187.20145063538607
337.13391984359725,195.1766950146627
338.1348973607038,201.48285337243396
339.13587487781035,207.18083577712608
340.1368523949169,208.96871065493644
341.13782991202345,210.02971847507334
342.13880742913,207.74738807429134
343.13978494623655,203.52608602150545
344.1407624633431,198.17878592375376
345.14173998044964,191.04155913978505
346.1427174975562,183.51564516129048
347.14369501466274,173.77112903225822
348.1446725317693,164.02545552297184
349.14565004887584,154.27278592375384
350.1466275659824,144.6427214076248
351.14760508308893,135.92744868035206
352.1485826001955,128.34739002932565
353.14956011730203,120.857392961877
354.1505376344086,113.70555913978512
355.1515151515151,106.6053333333335
356.1524926686217,99.80462170087993
357.1534701857282,93.21244672531785
358.1544477028348,87.45431378299133
359.1554252199413,82.50664222873912
360.15640273704787,77.91468914956022
361.1573802541544,74.23925708699913
362.15835777126097,70.74297947214085
363.1593352883675,68.22305669599226
364.16031280547406,65.92697067448687
365.1612903225806,64.10145161290328
366.16226783968716,62.58819061583583
367.1632453567937,61.06341837732166
368.16422287390026,59.525932551319706
369.1652003910068,58.19009188660802
370.16617790811335,57.89631867057675
371.1671554252199,57.62162170087977
372.16813294232645,57.550548387096775
373.169110459433,57.61368230694037
374.17008797653955,57.87438416422285
375.1710654936461,58.37961192570867
376.1720430107527,58.901215053763444
377.17302052785925,59.431683284457485
378.1739980449658,59.68818377321602
379.17497556207235,58.72080547409578
380.1759530791789,57.56636950146627
381.17693059628544,56.94420625610948
382.177908113392,56.791625610948195
383.17888563049854,56.998146627565994
384.1798631476051,58.04495014662757
385.18084066471164,58.790189638318665
386.1818181818182,57.90854545454545
387.18279569892474,57.16183870967742
388.1837732160313,57.92572922776149
389.18475073313783,59.56303812316716
390.1857282502444,61.54744868035191
391.18670576735093,64.005761485826
392.1876832844575,66.27641642228738
393.188660801564,67.86834799608992
394.1896383186706,69.46228347996089
395.1906158357771,71.05822287390029
396.1915933528837,72.53699511241446
397.1925708699902,73.38357869012707
398.19354838709677,73.74867741935483
399.1945259042033,74.66686314760507
400.19550342130987,76.74203812316713
401.1964809384164,78.28201759530792
402.19745845552296,77.53491104594332
403.1984359726295,76.59634799608995
404.19941348973606,75.8929384164223
405.2003910068426,75.1624760508309
406.20136852394916,73.53361192570873
407.2023460410557,70.77545161290325
408.20332355816225,68.23292179863151
409.20430107526886,66.34207526881713
410.2052785923754,64.38020234604096
411.20625610948196,62.12404203323549
412.2072336265885,59.65405571847496
413.20821114369505,56.51227859237523
414.2091886608016,52.97558651026382
415.21016617790815,50.209309872922724
416.2111436950147,48.76310850439877
417.21212121212125,46.95687878787868
418.2130987292278,43.79708406647106
419.21407624633434,40.53123167155414
420.2150537634409,37.00212903225795
421.21603128054744,33.595304985337165
422.217008797654,31.397557184750703
423.21798631476054,30.40940078201366
424.2189638318671,29.556161290322564
425.21994134897363,28.995052785923736
426.2209188660802,28.52144379276637
427.22189638318673,28.36259433040078
428.2228739002933,28.304322580645163
429.2238514173998,28.496527859237545
430.2248289345064,28.890316715542536
431.2258064516129,29.653774193548415
432.2267839687195,30.896519061583604
433.227761485826,32.622590420332415
434.22873900293257,35.60072727272733
435.2297165200391,38.33062365591401
436.23069403714567,40.169337243401785
437.2316715542522,41.5394604105572
438.23264907135876,41.736879765395884
439.2336265884653,41.05985141739979
440.23460410557186,39.69054545454542
441.2355816226784,37.3632727272727
442.23655913978496,35.03647311827954
443.2375366568915,32.71096480938414
444.23851417399806,30.549506353861176
445.2394916911046,28.967598240469197
446.24046920821115,27.453181818181804
447.2414467253177,25.520744868035173
448.24242424242425,23.351939393939382
449.2434017595308,21.67895894428152
450.24437927663735,20.734106549364608
451.2453567937439,20.211266862170092
452.24633431085044,21.013589442815253
453.247311827957,22.305215053763447
454.24828934506354,25.285502443792772
455.2492668621701,27.911777126099707
456.25024437927664,26.97185923753666
457.2512218963832,23.430316715542524
458.25219941348973,20.547126099706748
459.2531769305963,18.67029325513197
460.25415444770283,17.01609970674487
461.2551319648094,16.018419354838716
462.2561094819159,15.027451612903231
463.2570869990225,14.03674095796677
464.258064516129,13.046774193548394
465.2590420332356,12.057066471163253
466.2600195503421,11.096182795698933
467.26099706744867,10.303017595307924
468.2619745845552,9.758747800586516
469.26295210166177,9.448981427174973
470.2639296187683,9.796111436950143
471.26490713587486,9.969024437927668
472.2658846529814,9.594283479960907
473.26686217008796,9.061029325513204
474.2678396871945,8.529044965786909
475.26881720430106,8.093688172043013
476.2697947214076,8.183803519061568
477.27077223851416,8.993159335288352
478.2717497556207,9.678275659824038
479.27272727272725,10.047909090909084
480.2737047898338,10.419365591397842
481.27468230694035,10.794280547409572
482.2756598240469,11.172853372434009
483.27663734115345,11.561931573802532
484.27761485826,11.92917693059628
485.27859237536654,12.12359237536657
486.2795698924731,12.112870967741934
487.28054740957964,12.365343108504376
488.2815249266862,13.213859237536633
489.2825024437928,13.85933528836755
490.28347996089934,13.937479960899315
491.2844574780059,13.690020527859216
492.28543499511244,12.721950146627533
493.286412512219,11.360328445747768
494.28739002932554,9.986263929618737
495.2883675464321,8.610513196480909
496.28934506353863,7.244648093841613
497.2903225806452,5.890516129032231
498.29130009775173,4.782193548387086
499.2922776148583,4.284366568914948
500.2932551319648,3.7770821114369375
501.2942326490714,3.027667644183759
502.2952101661779,2.1285239491690944
503.2961876832845,1.0352463343108318
504.297165200391,0.36404398826980433
505.29814271749757,0.9339706744868072
506.2991202346041,1.2243343108504434
507.30009775171067,1.5350322580645197
508.3010752688172,1.8804086021505415
509.30205278592376,1.9632580645161233
510.3030303030303,1.2549393939393858
511.30400782013686,0.5258621700879748
512.3049853372434,0.650906158357724
513.3059628543499,1.5477927663733715
514.3069403714564,2.2358064516128793
515.307917888563,2.681630498533703
516.3088954056695,2.9559687194525917
517.3098729227761,2.9237458455522995
518.3108504398826,2.874281524926689
519.3118279569892,2.815043010752692
520.3128054740957,2.841694037145637
521.3137829912023,3.116237536656869
522.3147605083088,3.2504662756598477
523.3157380254154,2.5244418377322457
524.3167155425219,1.1565395894428903
525.3176930596285,0.2834076246334366
526.318670576735,0.3934447702834464
527.3196480938416,0.5340087976540038
528.3206256109481,0.3143098729227238
529.3216031280547,0.9027331378299049
530.3225806451612,0.947290322580651
531.3235581622678,1.1911446725317063
532.3245356793743,2.384552297165084
533.3255131964809,3.9990909090908136
534.3264907135874,5.205436950146571
535.327468230694,5.976005865102591
536.3284457478005,6.403782991202353
537.3294232649071,6.311363636363643
538.3304007820136,6.078182795698963
539.3313782991202,5.551067448680392
540.3323558162267,4.8945239491691765
541.3333333333333,3.9753333333334093
542.3343108504398,3.2090439882698174
543.3352883675464,3.1316979472140485
544.3362658846529,3.393883675464315
545.3372434017595,3.2575161290323016
546.338220918866,2.739447702834836
547.3391984359725,2.5597546432062273
548.3401759530791,2.9164428152492374
549.3411534701856,2.9940459433040463
550.3421309872922,2.5004858260020013
551.3431085043987,1.7310733137830916
552.3440860215054,0.7992258064516005
553.345063538612,0.7785298142717711
554.3460410557185,1.3262580645161317
555.347018572825,1.3792013685239484
556.3479960899316,1.2345053763440774
557.3489736070381,0.8825102639296104
558.3499511241447,0.531167155425212
559.3509286412512,0.21316226783968156
560.3519061583578,0.1786129032258143
561.3528836754643,0.6193206256109595
562.3538611925709,0.7314046920820978
563.3548387096774,0.5246451612903357
564.355816226784,1.2675855327468368
565.3567937438905,1.903737047898344
566.3577712609971,2.298161290322588
567.3587487781036,2.8956402737048017
568.3597262952102,3.713407624633443
569.3607038123167,4.708961876832861
570.3616813294233,5.962825024437943
571.3626588465298,6.758373411534701
572.3636363636364,6.709090909090908
573.3646138807429,6.590610948191593
574.3655913978495,6.471129032258063
575.366568914956,6.260102639296185
576.3675464320626,5.8141906158357735
577.3685239491691,5.175292277614854
578.3695014662757,4.32445747800586
579.3704789833822,3.34027370478983
580.3714565004888,2.7328250244379273
581.3724340175953,2.6057008797653953
582.3734115347019,2.47782991202346
583.3743890518084,2.348703812316715
584.375366568915,2.2188269794721407
585.3763440860215,2.08694623655914
586.377321603128,1.953816226783969
587.3782991202346,1.819929618768329
588.3792766373411,1.6112179863147618
589.3802541544477,1.1807487781036197
590.3812316715542,0.626340175953082
591.3822091886608,0.2711085043988279
592.3831867057673,0.1399335288367555
593.3841642228739,0.19001173020527598
594.3851417399804,0.5045493646138779
595.386119257087,0.661863147605084
596.3870967741935,0.5483225806451629
597.3880742913001,0.39840078201368706
598.3890518084066,0.24686412512219158
599.3900293255132,0.1875425219941337
600.3910068426197,0.3584750733137786
601.3919843597263,0.5986617790811317
602.3929618768328,0.6221260997067475
603.3939393939394,0.46157575757576036
604.3949169110459,0.29923362658846825
605.3958944281525,0.13428152492668938
606.396871945259,0.07368719452590222
607.3978494623656,0.201634408602147
608.3988269794721,0.37299706744867656
609.3998044965787,0.5473655913978455
610.4007820136852,0.8445738025415332
611.4017595307918,1.3889296187683127
612.4027370478983,1.8587829912023406
613.4037145650049,1.8834565004887651
614.4046920821114,1.5753841642228843
615.405669599218,1.0650879765396086
616.4066471163245,0.4345972629521173
617.4076246334312,0.20756891495603122
618.4086021505377,0.4312150537634584
619.4095796676443,0.4556529814271548
620.4105571847508,0.20712903225804394
621.4115347018574,0.113557184750744
622.4125122189639,0.29530303030305005
623.4134897360705,0.6659384164223302
624.414467253177,1.278028347996145
625.4154447702836,1.9848885630499074
626.4164222873901,2.690161290322634
627.4173998044967,3.3940146627566508
628.4183773216032,4.096282502443844
629.4193548387098,4.766935483871014
630.4203323558163,5.22977810361683
631.4213098729228,5.465007820136869
632.4222873900294,6.090008797654041
633.423264907136,7.24956402737056
634.4242424242425,8.568363636363742
635.425219941349,10.140281524926797
636.4261974584556,11.627335288367634
637.4271749755621,12.867532746823146
638.4281524926687,14.125272727272819
639.4291300097752,15.616044965787005
640.4301075268818,17.37929032258077
641.4310850439883,19.588956011730364
642.4320625610949,22.17421309872939
643.4330400782014,24.975151515151698
644.434017595308,28.009829912023644
645.4349951124145,31.45657575757599
646.4359726295211,35.39829618768351
647.4369501466276,40.08046627566014
648.4379276637342,45.7936080156406
649.4389051808407,51.91690615835813
650.4398826979473,58.544407624633806
651.4408602150538,65.93688172043055
652.4418377321604,74.54665298142766
653.4428152492669,83.69453079178933
654.4437927663735,92.8636920821119
655.44477028348,101.84628934506398
656.4457478005866,110.15924340175992
657.4467253176931,117.61115933528872
658.4477028347997,122.91515933528852
659.4486803519062,126.02716715542537
660.4496578690128,127.82396480938418
661.4506353861193,128.03715738025417
662.4516129032259,126.90206451612892
663.4525904203324,124.00027565982391
664.453567937439,121.36554643206247
665.4545454545455,119.49245454545448
666.455522971652,118.33509579667643
667.4565004887586,118.12119159335289
668.4574780058651,119.35680058651036
669.4584555229717,123.11551906158377
670.4594330400782,128.87315738025438
671.4604105571848,136.2471495601176
672.4613880742913,145.11093059628575
673.4623655913979,155.53266666666707
674.4633431085044,167.4469266862174
675.464320625611,180.23462267839733
676.4652981427175,193.9911270772243
677.4662756598241,206.18407038123198
678.4672531769306,216.4048680351909
679.4682306940372,223.41079765395907
680.4692082111437,226.05159530791792
681.4701857282503,224.4353919843596
682.4711632453568,217.33317302052762
683.4721407624634,206.67963636363606
684.4731182795699,192.96498924731145
685.4740957966765,177.54198924731145
686.475073313783,161.8838914956008
687.4760508308896,146.16689149560082
688.4770283479961,130.89743304007789
689.4780058651027,116.16136070381202
690.4789833822092,103.00996089931552
691.4799608993158,91.38965395894408
692.4809384164223,81.53190615835764
693.4819159335289,73.62162267839675
694.4828934506354,66.13835777126089
695.483870967742,59.13274193548377
696.4848484848485,53.35239393939388
697.485826001955,49.2386783968719
698.4868035190616,45.57937829912019
699.4877810361681,41.902965786901234
700.4887585532747,38.542437927663705
701.4897360703812,35.89023753665687
702.4907135874878,33.62942228739001
703.4916911045943,31.370778103616797
704.4926686217009,29.103149560117288
705.4936461388074,26.824005865102627
706.494623655914,24.584279569892463
707.4956011730205,22.807442815249264
708.4965786901271,21.46108113391984
709.4975562072336,20.12226490713587
710.4985337243402,18.77947507331378
711.4995112414467,18.045057673509287
712.5004887585533,18.00902248289345
713.5014662756598,17.32794134897361
714.5024437927664,15.68642033235582
715.5034213098729,14.262157380254157
716.5043988269795,13.531862170087978
717.505376344086,13.16415053763441
718.5063538611926,13.007086999022484
719.5073313782991,12.618346041055723
720.5083088954057,11.484121212121224
721.5092864125122,10.234103616813302
722.5102639296188,9.96147214076246
723.5112414467253,10.232798631476049
724.5122189638319,9.82490420332357
725.5131964809384,8.906794721407636
726.514173998045,8.457518084066471
727.5151515151515,8.431212121212122
728.516129032258,8.18148387096775
729.5171065493646,7.716062561094827
730.5180840664711,7.471276637341154
731.5190615835777,7.475876832844574
732.5200391006842,7.155294232649084
733.5210166177908,6.3825894428152665
734.5219941348973,5.834067448680357
735.5229716520039,5.758883675464319
736.5239491691104,5.842011730205277
737.524926686217,5.926618768328444
738.5259042033235,5.788192570869998
739.5268817204301,5.170720430107548
740.5278592375366,4.4801788856305125
741.5288367546432,4.278181818181816
742.5298142717497,4.433260997067443
743.5307917888563,4.833489736070365
744.5317693059628,5.364289345063524
