Raman Shift,Intensity 
400,-0.05411822
401,-0.030030898
402,0.043246916
403,-0.008139698
404,-0.00365761
405,0.079658618
406,0.045948924
407,-0.069471662
408,0.079895008
409,0.062444386
410,-0.028972193
411,-0.004241118
412,-0.034659333
413,-0.10443957
414,-0.022009417
415,-0.02740991
416,0.101551111
417,0.092524535
418,-0.011567725
419,-0.03708245
420,0.030419418
421,-0.062268183
422,0.026565124
423,-0.02389453
424,0.032962907
425,0.077172249
426,0.01122639
427,-0.044616083
428,0.001691643
429,0.005813422
430,-0.015620656
431,0.072423772
432,0.031669834
433,0.034092274
434,-0.036180244
435,0.062834877
436,-0.052083963
437,-0.071400288
438,-0.017702775
439,0.05713428
440,-0.052376177
441,-0.051031268
442,0.136007197
443,-0.011128309
444,0.056971076
445,-0.001279875
446,-0.040823557
447,-0.04242278
448,-0.004574429
449,-0.073219415
450,0.016541907
451,0.072318441
452,-0.00884103
453,0.040424992
454,-0.008926814
455,-0.029352683
456,-0.021020548
457,0.055295674
458,0.054296222
459,0.027306726
460,0.019023338
461,0.048483744
462,0.041058209
463,0.174383134
464,0.068479398
465,0.008106491
466,-0.046311479
467,0.043600726
468,-0.008942996
469,-0.027814799
470,-0.077958737
471,-0.006865181
472,-0.033139862
473,-0.004935087
474,0.013620388
475,0.029579969
476,0.033078985
477,-0.015587453
478,0.017766356
479,0.012448764
480,-0.005926331
481,0.008955304
482,0.061041915
483,-0.035991457
484,-0.045218466
485,-0.042442785
486,-0.091708501
487,0.017863709
488,-0.087846717
489,0.022054337
490,0.060459938
491,-0.034116228
492,-0.104263538
493,-0.00631979
494,0.024576783
495,-0.059822868
496,0.123845675
497,0.024750467
498,-0.001596765
499,0.05993114
500,-0.023120691
501,0.048710963
502,0.00666381
503,-0.022115526
504,0.108705029
505,-0.003217852
506,0.010440344
507,-0.041797359
508,0.049786995
509,-0.042377649
510,0.028368142
511,-0.028315381
512,-0.008879914
513,-0.017142377
514,-0.020648913
515,-0.009868812
516,-0.069617088
517,-0.0561045
518,0.012092602
519,-0.093788452
520,0.096954907
521,0.022848067
522,0.052582925
523,-0.010199928
524,-0.064067757
525,-0.074255038
526,-0.081810228
527,0.030471353
528,0.072822718
529,-0.00735838
530,0.074204585
531,0.029658675
532,-0.072856045
533,0.031112371
534,0.018952665
535,0.025733468
536,0.058274758
537,-0.013253698
538,0.041126006
539,0.075415043
540,0.058507082
541,-0.036637732
542,-0.01090755
543,0.041396812
544,-0.086551965
545,-0.061407428
546,-0.000925786
547,0.028325234
548,-0.013016634
549,-0.011295894
550,-0.023684951
551,0.067894235
552,-0.077950482
553,0.033209688
554,0.083993155
555,0.004754608
556,0.095347206
557,-0.038332855
558,0.001008031
559,-0.021683952
560,-0.008490941
561,-0.005524905
562,-0.008890973
563,0.075052442
564,0.009239857
565,-0.025327737
566,0.023467889
567,0.040926425
568,-0.031434082
569,-0.029122025
570,0.105532573
571,-0.051187845
572,-0.020232213
573,-0.03321767
574,-0.016528297
575,-0.037112672
576,-0.137353465
577,0.045549824
578,-0.083094073
579,0.005261682
580,0.047769535
581,0.164738327
582,0.066120488
583,0.060160298
584,0.111663775
585,-0.005996903
586,0.005848319
587,-0.014638505
588,-0.076247983
589,-0.014191357
590,-0.037326705
591,-0.015415367
592,-0.10307539
593,-0.090975836
594,-0.02344416
595,0.001038639
596,-0.076508194
597,0.019089285
598,0.04547584
599,0.021350417
600,-0.079455518
601,0.027209488
602,0.005752292
603,-0.015244737
604,0.024127003
605,0.027731898
606,-0.062561985
607,0.001450813
608,-0.009387573
609,-0.000922377
610,0.01199507
611,-0.113079006
612,0.034539181
613,0.004149016
614,-0.021901431
615,-0.031581766
616,0.045726638
617,-0.040793788
618,-0.039453803
619,0.080209018
620,-0.019220103
621,-0.139368727
622,-0.002551876
623,0.001627004
624,-0.092019747
625,-0.036148154
626,-0.020045662
627,-0.016210663
628,-0.050633137
629,0.015515868
630,0.054741849
631,0.023423256
632,0.06206709
633,0.078492424
634,0.062450556
635,0.044274148
636,-0.022119547
637,0.023734924
638,0.043990093
639,-0.012852863
640,0.017383191
641,-0.032212603
642,-0.030734208
643,0.051954125
644,0.122120327
645,0.021007128
646,-0.016851919
647,0.026925211
648,-0.032521797
649,0.021907675
650,-0.107395379
651,-0.012021328
652,-0.065988358
653,-0.000952124
654,0.065066295
655,-0.039462527
656,-0.078163803
657,-0.069771861
658,-0.059341167
659,-0.090692956
660,0.071863825
661,0.02914445
662,-0.018270357
663,-0.026116381
664,0.031763234
665,-0.014816579
666,-0.097535768
667,0.048023065
668,0.005851668
669,0.033774586
670,0.005361391
671,-0.029735102
672,-0.038191885
673,0.04395463
674,0.109546837
675,-0.041095052
676,0.065192739
677,0.040459218
678,0.029867988
679,0.05709459
680,-0.008397591
681,0.059122654
682,-0.048821656
683,0.037124974
684,0.014766657
685,-0.007968807
686,-0.018916028
687,0.068414043
688,0.016041751
689,-0.041769464
690,0.014226204
691,-0.068055645
692,0.016960522
693,-0.031264737
694,-0.042941161
695,0.021543666
696,0.010170792
697,-0.050060101
698,-0.070000804
699,0.083994964
700,-0.020876876
701,0.004364123
702,-0.0297909
703,-0.008145172
704,-0.050965574
705,-0.100359362
706,0.022364908
707,0.054026843
708,-0.135374136
709,0.013487528
710,-0.009472189
711,-0.00251484
712,-0.046980192
713,0.072443264
714,0.038082036
715,-0.068735206
716,-0.041350777
717,-0.046868575
718,-0.023268861
719,-0.034201771
720,-0.00293234
721,-0.008385976
722,0.030733808
723,-0.037065463
724,-0.001361916
725,-0.077913721
726,-0.022926214
727,0.033545339
728,0.10218095
729,-0.070955504
730,0.018550514
731,-0.120147605
732,-0.04746192
733,-0.046163663
734,-0.01235433
735,0.00157675
736,0.016278673
737,-0.011594697
738,0.032914456
739,0.035998647
740,-0.007464084
741,0.005176045
742,-0.056271739
743,0.058368822
744,-0.048180967
745,-0.093748352
746,0.045360605
747,-7.57E-05
748,0.062062784
749,0.029693858
750,0.06662703
751,-0.022626663
752,-0.005024254
753,0.019206278
754,0.009837502
755,-0.029951225
756,0.06147637
757,-0.041131413
758,-0.019722529
759,0.039682521
760,-0.075929248
761,0.009931273
762,-0.105301577
763,0.102877329
764,0.05853606
765,0.018808159
766,0.014798859
767,0.056062606
768,-0.08267848
769,-0.012944411
770,-0.040640221
771,0.011290508
772,0.075112205
773,-0.026316036
774,-0.003525001
775,-0.042235393
776,0.039489288
777,0.037457298
778,0.030593506
779,0.099246685
780,-0.042335008
781,0.026993076
782,-0.034792737
783,0.006277795
784,0.025243288
785,0.01930808
786,0.009061477
787,0.055242828
788,-0.011225144
789,0.05979618
790,0.021541792
791,-0.051257719
792,0.107278155
793,-0.034241918
794,-0.033758758
795,0.010032869
796,-0.044519291
797,0.024468516
798,0.053741144
799,0.041173753
800,0.011695981
801,0.035145145
802,0.005458553
803,-0.068364023
804,0.017550497
805,-0.028961872
806,0.025896674
807,-0.012972242
808,-0.025288313
809,0.029896951
810,-0.000962507
811,0.005565412
812,0.044637694
813,0.014585526
814,0.105986294
815,0.022801352
816,-0.018414859
817,0.004195285
818,-0.068221452
819,-0.024308392
820,0.043422108
821,-0.020810142
822,-0.04121216
823,0.06756009
824,-0.017677509
825,0.014337903
826,-0.091532757
827,0.066373661
828,0.069561978
829,0.03095974
830,0.060906245
831,-0.00182916
832,0.006953749
833,-0.073615068
834,-0.022009865
835,0.013408363
836,0.157452712
837,-0.035814404
838,-0.044412098
839,0.056679747
840,0.013235987
841,-0.025193803
842,0.052407341
843,-0.008988751
844,-0.016185535
845,-0.031776232
846,-0.011594936
847,0.010824903
848,0.042281485
849,0.055251544
850,-0.038298853
851,0.043643357
852,-0.12135627
853,-0.002617639
854,-0.052041022
855,0.08020155
856,-0.174077575
857,-0.019887339
858,-0.05873212
859,-0.058902811
860,0.00197437
861,-0.007904776
862,0.017361596
863,-0.087329893
864,-0.019573509
865,0.105451527
866,-0.093464625
867,-0.095354928
868,0.015209382
869,0.088389855
870,-0.118695946
871,0.107846402
872,0.086131498
873,0.089399911
874,0.042171115
875,-0.014983566
876,-0.07425904
877,-0.006110564
878,0.023508042
879,-0.10684884
880,-0.024554038
881,-0.050734439
882,0.043774653
883,-0.016055909
884,-0.008746523
885,0.036657762
886,0.02798889
887,-0.030848375
888,-0.040326757
889,-0.03987787
890,-0.054612979
891,0.007939853
892,0.014779884
893,0.044643197
894,0.084959616
895,-0.0073601
896,0.01915575
897,-0.094431042
898,0.007751876
899,-0.050210451
900,-0.07835289
901,0.023114801
902,0.005101476
903,0.058599121
904,0.057440351
905,-0.011664687
906,-0.015544242
907,-0.026833087
908,0.024639591
909,-0.056346608
910,0.057354863
911,-0.097886612
912,-0.052710261
913,-0.077548969
914,0.016564271
915,-0.056769274
916,-0.008312269
917,0.023828646
918,0.011973522
919,-0.026181588
920,0.028331576
921,-0.035720516
922,0.055462785
923,-0.014658609
924,-0.003229431
925,0.015292254
926,-0.050433546
927,-0.042784094
928,0.002551662
929,0.052417132
930,0.003767363
931,-0.007436913
932,-0.021449782
933,0.03950636
934,0.093406774
935,0.000862031
936,0.009046423
937,-0.006998908
938,0.009830534
939,-0.013738966
940,-0.085740105
941,0.040154102
942,0.057816526
943,-0.003764298
944,0.020187484
945,0.132216968
946,0.104389855
947,0.023129219
948,0.008861293
949,-0.045770571
950,0.05999537
951,0.027184132
952,-0.043497875
953,0.054510446
954,0.025796795
955,0.002761691
956,0.009588192
957,0.035572632
958,0.014198957
959,-0.010031807
960,0.045269871
961,-0.064339634
962,0.04382692
963,-0.053549653
964,0.010464444
965,-0.104522537
966,-0.023274598
967,-0.067086927
968,0.016038392
969,-0.007057561
970,0.04550887
971,-0.037030163
972,0.049715488
973,-0.045580824
974,0.014472314
975,0.034442028
976,0.048203716
977,0.033325744
978,0.058789854
979,-0.05047048
980,-0.013993412
981,0.037194194
982,-0.052838032
983,0.00350407
984,-0.021718057
985,0.022416246
986,0.001321579
987,0.036536425
988,0.004926856
989,-0.039002815
990,-0.01139615
991,0.044933638
992,-0.021614827
993,0.035207243
994,-0.112905264
995,-0.03895759
996,-0.039750893
997,0.07842306
998,0.098035715
999,0.013802555
1000,-0.045484294
1001,0.035613218
1002,-0.039448253
1003,0.042815851
1004,-0.0190233
1005,-0.008390157
1006,0.003429285
1007,-0.032569236
1008,0.047400837
1009,0.06292973
1010,0.016201766
1011,0.12245763
1012,-0.011133281
1013,-0.017346591
1014,0.050276283
1015,0.069277181
1016,-0.03097558
1017,0.018059062
1018,-0.053032218
1019,-0.049954952
1020,0.03048285
1021,-0.01393812
1022,-0.011125405
1023,0.011980692
1024,-0.019122233
1025,-0.057365222
1026,-0.048581826
1027,0.014343038
1028,-0.040978721
1029,0.100847069
1030,0.004447385
1031,-0.006078943
1032,0.007193599
1033,-0.004178521
1034,-0.067732555
1035,-0.045838432
1036,0.054305251
1037,0.037177145
1038,0.020908745
1039,0.013530331
1040,0.034046732
1041,0.034616401
1042,0.004719985
1043,-0.057553445
1044,0.063164798
1045,-0.008166954
1046,0.020848501
1047,0.004569453
1048,-0.023408937
1049,0.035795261
1050,0.033481801
1051,-0.036811462
1052,0.037511384
1053,-0.011793372
1054,-0.007540723
1055,-0.01855996
1056,-0.01645995
1057,-0.01833909
1058,-0.027116395
1059,0.074059681
1060,-0.005842194
1061,-0.014864536
1062,0.053732543
1063,0.024387037
1064,0.055608514
1065,-0.06702891
1066,-0.000909388
1067,0.033933774
1068,-0.021686032
1069,-0.004506241
1070,-0.048889921
1071,-0.021325702
1072,0.083023033
1073,0.070891374
1074,-0.014236211
1075,-0.010449346
1076,-0.03503853
1077,0.088742913
1078,0.053390541
1079,0.026869876
1080,0.009531921
1081,0.02386729
1082,-0.055297605
1083,-0.004568964
1084,0.017231245
1085,-0.007900185
1086,0.06930027
1087,-0.045025741
1088,0.027207563
1089,-0.025652742
1090,-0.009868228
1091,0.064668298
1092,-0.018143326
1093,0.046257896
1094,-0.131465069
1095,0.00588139
1096,0.029852385
1097,-0.042225743
1098,0.015288832
1099,0.006726379
1100,-0.02275081
1101,-0.008552484
1102,0.066720068
1103,0.120998466
1104,-0.02809897
1105,-0.070900567
1106,0.015306168
1107,-0.031201502
1108,0.01491468
1109,0.04429527
1110,0.016769437
1111,0.021635588
1112,-0.010672074
1113,0.02000731
1114,-0.043108305
1115,0.065471108
1116,-0.016776557
1117,0.068578118
1118,0.066619791
1119,-0.021533861
1120,0.051764412
1121,0.067502955
1122,0.000185494
1123,-0.016871087
1124,0.006700811
1125,-0.002823793
1126,0.012742689
1127,-0.004638281
1128,-0.019886122
1129,0.097093155
1130,-0.055274911
1131,-0.050985445
1132,-0.083398806
1133,-0.018188072
1134,-0.076335197
1135,0.06362281
1136,0.014707651
1137,0.032176396
1138,-0.02811877
1139,-0.007841929
1140,-0.003005236
1141,-0.000168776
1142,0.06144151
1143,-0.012823194
1144,0.051553332
1145,0.141868007
1146,-0.055748816
1147,0.005852244
1148,-0.032351453
1149,0.020623472
1150,-0.097469372
1151,-0.007637375
1152,0.011985334
1153,-0.065115934
1154,0.103798062
1155,-0.018931544
1156,-0.014893412
1157,0.026621763
1158,0.026170826
1159,0.03408167
1160,0.024545773
1161,-0.032369487
1162,-0.086255718
1163,0.041823524
1164,-0.015498616
1165,-0.031402364
1166,0.014450929
1167,0.011025439
1168,0.055001406
1169,0.07235442
1170,-0.051800493
1171,-0.032084522
1172,0.014873522
1173,-0.108070253
1174,0.040534026
1175,0.014997557
1176,0.12090497
1177,0.035620173
1178,0.004717396
1179,-0.016496002
1180,0.026127935
1181,0.061439123
1182,-0.002341631
1183,-0.057532032
1184,-0.00621729
1185,-0.003947769
1186,0.021111332
1187,-0.004717977
1188,-0.030247793
1189,0.034748428
1190,0.02342211
1191,-0.009299788
1192,-0.049918912
1193,-0.012728733
1194,0.014440828
1195,-0.067898205
1196,-0.054088547
1197,-0.018380943
1198,0.092920105
1199,0.073314135
1200,-0.012296418
1201,0.016873773
1202,-0.001106034
1203,0.079575732
1204,0.053566368
1205,-0.002091478
1206,-0.087785082
1207,-0.01784105
1208,0.023039861
1209,-0.026276713
1210,0.041653773
1211,0.015514274
1212,-0.095951841
1213,0.003870129
1214,-0.038816037
1215,-0.032842231
1216,0.044837411
1217,-0.036682266
1218,-0.020032336
1219,-0.030780613
1220,-0.065355621
1221,-0.072503149
1222,-0.048158495
1223,-0.0265984
1224,0.063658405
1225,0.083915048
1226,-0.041774374
1227,-0.033669675
1228,0.071075865
1229,-0.031184269
1230,0.010014067
1231,-0.045869308
1232,-0.077101114
1233,0.06681374
1234,0.030929612
1235,0.037253543
1236,0.078007936
1237,-0.036009042
1238,0.079714867
1239,0.032515503
1240,-0.046664689
1241,0.023101021
1242,-0.065827474
1243,-0.004856035
1244,0.053339396
1245,-0.002615142
1246,0.059182902
1247,0.009565408
1248,0.068077648
1249,0.051537997
1250,-0.005813124
1251,0.072184128
1252,-0.072325253
1253,-0.021631681
1254,0.027915141
1255,0.009117176
1256,-0.040297821
1257,-0.032895738
1258,-0.011079532
1259,-0.036767949
1260,-0.03385594
1261,0.027024298
1262,0.081941972
1263,0.044486304
1264,-0.05234372
1265,0.050498519
1266,-0.0602539
1267,-0.002295989
1268,0.044337028
1269,0.055551179
1270,0.018700514
1271,-0.095745477
1272,0.033130351
1273,-0.06662968
1274,0.046138375
1275,0.076253932
1276,-0.033615363
1277,0.029386061
1278,0.071669243
1279,0.020708785
1280,0.038330823
1281,0.06298819
1282,0.06533267
1283,-0.064198299
1284,0.012578277
1285,0.034832464
1286,0.060799871
1287,0.042158034
1288,0.000826831
1289,-0.036815744
1290,-0.001742851
1291,0.077053027
1292,0.001089404
1293,0.07250168
1294,-0.109040439
1295,4.87E-05
1296,-0.060959385
1297,-0.065372828
1298,0.048409739
1299,0.021691895
1300,0.003328488
1301,0.002206724
1302,-0.008929447
1303,0.054892779
1304,-0.034784805
1305,0.074285611
1306,-0.021071606
1307,0.044236593
1308,0.026207267
1309,-0.083317889
1310,-0.034283625
1311,-0.063707718
1312,-0.093603536
1313,0.010370075
1314,-0.027704766
1315,0.021892163
1316,0.005142158
1317,-0.015612663
1318,0.031228255
1319,-0.038958806
1320,-0.009784777
1321,0.023758355
1322,-0.001991263
1323,-0.067614371
1324,0.065024522
1325,-0.033078123
1326,-0.044501546
1327,-0.019534291
1328,-0.077309976
1329,-0.006017906
1330,-0.034189047
1331,-0.139714462
1332,-0.085936135
1333,-0.055240985
1334,-0.018988016
1335,0.048407513
1336,-0.111665495
1337,-0.062964386
1338,-0.046572934
1339,0.043647438
1340,0.033962652
1341,0.084561726
1342,0.049192325
1343,-0.026786089
1344,-0.032723047
1345,-0.030212062
1346,0.136812797
1347,0.072017561
1348,0.021555282
1349,-0.040626409
1350,-0.02541811
1351,-0.123084977
1352,-0.047601834
1353,0.04215942
1354,-0.05125575
1355,0.013501701
1356,0.020312515
1357,0.010276504
1358,-0.027229525
1359,0.019073419
1360,0.07543385
1361,0.024065463
1362,0.0150765
1363,-0.006941096
1364,-0.050251433
1365,-0.01299788
1366,0.030492658
1367,-0.039772219
1368,0.010224977
1369,0.065498134
1370,-0.017383429
1371,0.001802401
1372,-0.005030872
1373,0.023579865
1374,0.020716214
1375,-0.12949914
1376,0.001687539
1377,-0.029605859
1378,0.045605125
1379,-0.053095834
1380,0.088565466
1381,0.017675669
1382,-0.082801286
1383,-0.014709727
1384,-0.072701152
1385,-0.057296828
1386,-0.076517977
1387,-0.031232405
1388,0.044916361
1389,-0.049254991
1390,0.025595424
1391,-0.019113394
1392,0.004338066
1393,-0.032736712
1394,-0.04848433
1395,-0.00411209
1396,0.013598781
1397,-0.026549038
1398,0.027115897
1399,0.043693535
1400,0.063088649
1401,-0.047457085
1402,-0.055403014
1403,-0.008796927
1404,-0.024542261
1405,-0.072536406
1406,-0.027113186
1407,-0.000659902
1408,-0.010240461
1409,-0.002382836
1410,-0.031706562
1411,-0.053004995
1412,0.07069735
1413,0.074554831
1414,-0.047361617
1415,-0.028771381
1416,-0.000881771
1417,0.019224946
1418,-0.058313167
1419,-0.020992098
1420,0.008176136
1421,-0.028058943
1422,0.029252933
1423,-0.077595129
1424,-0.018711258
1425,0.059842819
1426,-0.093625758
1427,0.067356255
1428,-0.010029689
1429,0.10444441
1430,0.020094645
1431,0.03327093
1432,0.055930203
1433,-0.015566406
1434,-0.086031077
1435,-0.041385685
1436,0.046461289
1437,0.017269788
1438,-0.037795784
1439,-0.029713368
1440,-0.034033333
1441,0.033350632
1442,0.083023425
1443,0.072815016
1444,-0.002694967
1445,0.027898277
1446,-0.010118061
1447,0.103787466
1448,-0.008602794
1449,-0.044707751
1450,0.046087332
1451,0.048718698
1452,-0.029560874
1453,0.021325359
1454,-0.040264223
1455,0.039085374
1456,0.165179067
1457,-0.087315667
1458,0.065538497
1459,0.034402227
1460,0.003879019
1461,0.092819332
1462,-0.042925677
1463,0.026591405
1464,-0.03556264
1465,-0.042415112
1466,0.103714478
1467,-0.014295771
1468,0.003665203
1469,-0.045950369
1470,0.033454764
1471,0.022597284
1472,-0.020565917
1473,0.000741435
1474,0.032274917
1475,-0.048975411
1476,0.057609725
1477,0.00821708
1478,0.019684459
1479,0.068153085
1480,0.013054482
1481,0.025330314
1482,-0.004323449
1483,0.050596663
1484,0.036983422
1485,0.010179628
1486,-0.069696361
1487,-0.003595885
1488,-0.116701069
1489,-0.002382177
1490,-0.052937659
1491,0.065119569
1492,-0.054260496
1493,0.048470771
1494,-0.046618961
1495,0.069892253
1496,-0.016963446
1497,0.102150323
1498,-0.006232902
1499,0.059078917
1500,0.010016656
1501,0.035364065
1502,0.020724227
1503,0.045658532
1504,0.016285644
1505,-0.086870635
1506,-0.033688367
1507,-0.001512003
1508,0.009849424
1509,-0.002350279
1510,-0.025915066
1511,0.016992119
1512,-0.018429479
1513,0.027693562
1514,-0.024452584
1515,0.009640294
1516,-0.010849451
1517,0.025073962
1518,0.0384586
1519,-0.016431128
1520,0.024549936
1521,-0.045064641
1522,0.038358994
1523,-0.017314925
1524,0.020188158
1525,-0.068425101
1526,0.037042701
1527,0.035663374
1528,-0.082783809
1529,-0.004791291
1530,-0.075090927
1531,-0.104297513
1532,0.07957459
1533,-0.022377144
1534,-0.026747099
1535,-0.055517289
1536,-0.003474286
1537,0.069698867
1538,-0.008980192
1539,0.007973976
1540,-0.019702598
1541,0.007327036
1542,-0.05805878
1543,-0.032614331
1544,-0.00101816
1545,0.141109123
1546,-0.090737271
1547,0.08293744
1548,-0.041344599
1549,-0.010270631
1550,-0.019725799
1551,-0.051877727
1552,0.082970623
1553,0.009913877
1554,-0.00885841
1555,0.032637208
1556,-0.075313064
1557,0.056394262
1558,-0.010185306
1559,0.03112068
1560,0.031546229
1561,-0.072904526
1562,-0.038539773
1563,-0.020711047
1564,0.012338194
1565,-0.060020489
1566,-0.036234895
1567,0.037155399
1568,-0.059052889
1569,-0.055636764
1570,-0.071936912
1571,0.087662378
1572,-0.023109097
1573,0.037453239
1574,0.008974262
1575,0.08417943
1576,-0.075706254
1577,0.080088371
1578,0.044955778
1579,-0.03484601
1580,-0.02628734
1581,-0.013872579
1582,0.001403071
1583,0.055003155
1584,-0.074981167
1585,-0.014526114
1586,0.070508634
1587,-0.025562991
1588,-0.015278386
1589,0.109112039
1590,0.002535456
1591,-0.015401173
1592,0.027583013
1593,-0.024706727
1594,-0.021428291
1595,-0.028942054
1596,0.03918892
1597,-0.00697199
1598,0.104904375
1599,0.120705418
1600,-0.026461862
1601,-0.028228827
1602,-0.083462784
1603,0.069713225
1604,0.019014026
1605,-0.030324726
1606,0.035780788
1607,-0.051614034
1608,-0.082518027
1609,-0.075372863
1610,-0.033857413
1611,0.11125378
1612,-0.052434222
1613,0.003082034
1614,0.053598455
1615,-0.017437148
1616,-0.029756601
1617,0.072306452
1618,0.065925945
1619,-0.110157362
1620,0.054743559
1621,0.015071018
1622,0.064861298
1623,0.013989405
1624,0.055039464
1625,-0.034502904
1626,0.056191559
1627,-0.006542591
1628,-0.035832008
1629,0.020627906
1630,0.001840674
1631,0.036303596
1632,-0.011373515
1633,0.052550104
1634,-0.001038477
1635,0.004910867
1636,0.032827584
1637,0.009913974
1638,0.032649226
1639,-0.005943429
1640,0.027933665
1641,0.059796396
1642,0.002212395
1643,0.044818766
1644,0.011056789
1645,0.063445956
1646,-0.003902117
1647,-0.045336007
1648,-0.005236723
1649,0.003827841
1650,-0.071383092
1651,-0.06587036
1652,0.071638473
1653,0.008895159
1654,0.009813473
1655,0.005176545
1656,-0.080169839
1657,-0.042073152
1658,-0.071653797
1659,-0.005026335
1660,-0.048615269
1661,-0.001475482
1662,0.019058795
1663,0.020431111
1664,0.04096197
1665,-0.003640681
1666,-0.095751545
1667,-0.026840706
1668,-0.124205065
1669,-0.052331718
1670,0.093097334
1671,-0.039319195
1672,0.009641029
1673,-0.085408741
1674,0.04323979
1675,-0.047828207
1676,0.041933704
1677,-0.010503152
1678,-0.013388542
1679,0.108014545
1680,0.006286843
1681,-0.040039258
1682,-0.014500854
1683,0.007300999
1684,0.014622791
1685,-0.014435528
1686,0.001675695
1687,-0.036113569
1688,-0.080612186
1689,-0.031957359
1690,0.102056835
1691,0.022721334
1692,-0.039287689
1693,-0.025909365
1694,-0.085971471
1695,-0.039543399
1696,-0.058322722
1697,0.076909451
1698,-0.022885966
1699,0.005749208
1700,0.061649777
1701,0.002133806
1702,0.014455923
1703,0.039766369
1704,-0.029494505
1705,0.04145022
1706,-0.009434087
1707,0.039293997
1708,-0.006630355
1709,0.007333122
1710,0.05004941
1711,0.051551544
1712,-0.036015989
1713,0.065340654
1714,-0.06819712
1715,0.014655589
1716,0.037691208
1717,0.028071444
1718,0.043497892
1719,-0.071933522
1720,0.033587867
1721,0.037895825
1722,-0.054430035
1723,-0.044093083
1724,-0.041512105
1725,0.039305725
1726,-0.003862413
1727,-0.025725792
1728,0.008728885
1729,-0.002073127
1730,-0.005190579
1731,0.020991491
1732,-0.036000518
1733,-0.010739603
1734,-0.072735901
1735,-0.009871844
1736,0.067450411
1737,0.063122081
1738,0.008097177
1739,-0.018492111
1740,-0.034257086
1741,0.013584318
1742,0.043708678
1743,0.070169586
1744,0.021564283
1745,0.037601816
1746,-0.066333358
1747,-0.07089031
1748,0.029736968
1749,-0.07019706
1750,-0.003457646
1751,-0.044339989
1752,0.010619334
1753,-0.008850637
1754,0.066353896
1755,0.009558845
1756,-0.074726064
1757,-0.018596643
1758,-0.048209716
1759,0.022791916
1760,0.051488005
1761,-0.056910133
1762,-0.001768695
1763,0.032959811
1764,-0.002409635
1765,-0.034154536
1766,0.029970163
1767,0.03765423
1768,0.039912325
1769,0.034962824
1770,0.016567627
1771,-0.046093586
1772,0.001869869
1773,-0.035822673
1774,-0.001126745
1775,-0.015335085
1776,0.041927874
1777,-0.025448524
1778,0.000895573
1779,-0.029168091
1780,-0.01105625
1781,-0.070046551
1782,0.00380943
1783,-0.029632229
1784,-0.010748178
1785,-0.019759885
1786,-0.035375401
1787,0.01203082
1788,0.012423733
1789,0.001341604
1790,0.078050075
1791,0.022256844
1792,-0.035509339
1793,0.014153643
1794,-0.044062663
1795,0.006616866
1796,0.056716454
1797,0.032540662
1798,0.06301952
1799,0.016494083
1800,0.078586007
1801,0.033576833
1802,-0.018702954
1803,0.024294231
1804,0.034695343
1805,-0.028448212
1806,0.053885588
1807,0.003267166
1808,0.141893051
1809,0.025279963
1810,0.012889642
1811,-0.010132357
1812,-0.014753212
1813,0.003778051
1814,0.0256377
1815,0.021301083
1816,-0.051370296
1817,-0.012799517
1818,-0.017913638
1819,-0.037416893
1820,0.000844811
1821,0.097840515
1822,0.083246219
1823,0.058117679
1824,-0.015816661
1825,0.010544637
1826,-0.027346076
1827,-0.044706279
1828,-0.049746792
1829,0.037471033
1830,-0.015836703
1831,-0.044458903
1832,-0.022231785
1833,0.026488984
1834,-0.086619937
1835,-0.058539394
1836,-0.070340742
1837,0.052455767
1838,0.029023754
1839,0.006578831
1840,0.081915838
1841,-0.008324226
1842,0.011861881
1843,-0.0557437
1844,0.001012486
1845,0.00544248
1846,-0.017396165
1847,-0.043252557
1848,0.001940841
1849,-0.071285593
1850,-0.004931279
1851,-0.000514563
1852,0.005444818
1853,-0.049194577
1854,0.0169181
1855,-0.002830803
1856,0.049615955
1857,0.013845413
1858,-0.004677922
1859,-0.043285544
1860,0.053475977
1861,0.043790777
1862,-0.005713387
1863,-0.086629477
1864,0.056569658
1865,0.087976377
1866,-0.019225937
1867,0.095026927
1868,0.068476743
1869,0.128216378
1870,0.0491726
1871,-0.018832539
1872,-0.03710642
1873,-0.035150287
1874,-0.03068785
1875,0.07850309
1876,0.07173943
1877,-0.03374596
1878,0.069158044
1879,-0.051558197
1880,-0.0277004
1881,0.036473268
1882,-0.013490778
1883,-0.006793874
1884,0.011933593
1885,-0.019319777
1886,-0.004914041
1887,0.065180912
1888,0.064024945
1889,0.104245165
1890,0.039522417
1891,-0.038089244
1892,0.001670255
1893,-0.056702764
1894,-0.089291436
1895,-0.024830369
1896,0.049671423
1897,-0.056027311
1898,0.006979102
1899,0.027680348
1900,0.032563404
1901,0.017327119
1902,0.015997896
1903,-0.052503477
1904,-0.034727306
1905,-0.002714571
1906,-0.038390991
1907,-0.058337959
1908,0.084233534
1909,-0.004142661
1910,0.030213141
1911,0.009092571
1912,0.003185755
1913,-0.001411798
1914,-0.000887969
1915,-0.013593175
1916,-0.054834341
1917,-0.046526775
1918,-0.061560519
1919,0.036511955
1920,0.093586183
1921,-0.053889115
1922,0.04814643
1923,-0.047621015
1924,0.043523693
1925,-0.008072835
1926,-0.075417214
1927,0.034334443
1928,0.03529346
1929,0.103399593
1930,0.017789637
1931,0.022901812
1932,0.052821108
1933,0.020825738
1934,0.00103536
1935,-0.010700444
1936,0.034677383
1937,-0.057409171
1938,0.038984668
1939,-0.000811527
1940,-0.028997784
1941,0.055220177
1942,-0.026364838
1943,-0.001183126
1944,0.03960457
1945,-0.044060192
1946,-0.121711352
1947,-0.039093982
1948,0.012200111
1949,-0.009362216
1950,-0.015686241
1951,-0.00304677
1952,-0.099167856
1953,-0.051610742
1954,0.08274726
1955,-0.043428445
1956,-0.020551069
1957,-0.017805395
1958,-0.090337601
1959,-0.004971101
1960,0.054405425
1961,0.113741546
1962,0.084629705
1963,0.041177071
1964,0.018085127
1965,0.079803843
1966,0.031019981
1967,-0.055971785
1968,-0.06104549
1969,-0.066356176
1970,0.027476027
1971,0.068889771
1972,0.007535382
1973,-0.049485314
1974,-0.055570035
1975,0.012475332
1976,-0.002302055
1977,0.058723312
1978,-0.010031002
1979,-0.002718618
1980,-0.106654209
1981,0.111049316
1982,-0.04394468
1983,-0.075869857
1984,0.008505434
1985,-0.032385122
1986,0.043560643
1987,0.080253532
1988,-0.070481673
1989,0.078514709
1990,0.025410905
1991,0.016710767
1992,0.05644617
1993,-0.01721537
1994,0.059852543
1995,0.026201873
1996,-0.036664388
1997,0.052717823
1998,-0.058353822
1999,0.033291969
2000,0.016929626
2001,0.0332141
2002,-0.07712046
2003,-0.061555938
2004,-0.003839689
2005,0.102241243
2006,0.012073745
2007,-0.094724451
2008,0.08692044
2009,-0.019202844
2010,-0.068779156
2011,0.046171941
2012,0.027756184
2013,-0.075898015
2014,0.078795905
2015,0.047775714
2016,-0.049815191
2017,0.018655415
2018,0.008207239
2019,0.082334933
2020,0.008222203
2021,0.026630479
2022,0.016922496
2023,-0.005678085
2024,0.015348669
2025,0.092698574
2026,-0.044304058
2027,0.015182934
2028,-0.091926561
2029,0.06285635
2030,-0.010322801
2031,-0.058497524
2032,-0.000248877
2033,0.043983499
2034,-0.048940442
2035,0.018782989
2036,-0.045518723
2037,-0.012298472
2038,0.002917937
2039,0.04640925
2040,-0.000153313
2041,0.052921367
2042,-0.077882036
2043,0.004358565
2044,-0.023620744
2045,0.055501454
2046,-0.019129644
2047,0.035405786
2048,-0.02663292
2049,0.035123324
2050,-0.062394588
2051,-0.028522799
2052,-0.121922443
2053,0.07418031
2054,-0.00348819
2055,-0.008138233
2056,0.020870472
2057,-0.015883114
2058,-0.012680899
2059,-0.066413074
2060,0.023838237
2061,0.077332738
2062,0.03409204
2063,-0.032400754
2064,0.000487019
2065,0.004945711
2066,-0.053689848
2067,0.027903914
2068,0.047695293
2069,0.102037409
2070,-0.015499132
2071,-0.037537821
2072,-0.023634917
2073,-0.005062912
2074,-0.027624991
2075,-0.054238196
2076,-0.048339244
2077,0.107245998
2078,-0.031353604
2079,0.039979223
2080,0.00629889
2081,-0.040794669
2082,-0.027118825
2083,-0.028378889
2084,-0.037247368
2085,0.016013333
2086,0.07507972
2087,-0.04907124
2088,-0.030213028
2089,-0.024993697
2090,-0.003911242
2091,-0.014729151
2092,0.172487366
2093,0.037746895
2094,-0.021489919
2095,-0.032266671
2096,-0.029903221
2097,0.014878356
2098,0.052227571
2099,0.004097763
2100,0.045165212
2101,0.065589475
2102,-0.023337891
2103,0.01063054
2104,-0.032986878
2105,-0.005688467
2106,0.030593844
2107,-0.038627154
2108,-0.024105731
2109,0.022767925
2110,0.023255684
2111,0.005928907
2112,-0.061049902
2113,-0.002461037
2114,-0.09417767
2115,0.018051864
2116,0.000368297
2117,-0.012414245
2118,0.001980794
2119,0.058439384
2120,0.046297314
2121,-0.02422838
2122,-0.019942899
2123,0.067175817
2124,0.034167366
2125,-0.043383771
2126,0.047586928
2127,0.091798954
2128,-0.042945942
2129,0.041402034
2130,0.071750396
2131,-0.005602258
2132,-0.028101992
2133,0.034208823
2134,-0.002980626
2135,0.03178448
2136,-0.044659372
2137,-0.074787177
2138,-0.065592169
2139,-0.052342188
2140,0.082840848
2141,0.028828501
2142,-0.02131175
2143,-0.022036434
2144,0.037344774
2145,0.04686184
2146,-0.022076527
2147,0.093126918
2148,0.062307816
2149,-0.009985262
2150,0.03007624
2151,-0.036232722
2152,-0.021659975
2153,-0.084400539
2154,0.018755268
2155,0.050064592
2156,0.005184339
2157,0.028579094
2158,-0.002539649
2159,-0.057965836
2160,0.073009604
2161,0.042824342
2162,0.009543984
2163,-0.01629024
2164,0.132703329
2165,-0.11723171
2166,-0.031646479
2167,-0.066339105
2168,0.064459805
2169,-0.025674905
2170,-0.051641572
2171,-0.00248942
2172,-0.023917739
2173,-0.039306206
2174,-0.027419268
2175,0.011126038
2176,-0.063934006
2177,-0.068446727
2178,-0.122323675
2179,0.073927416
2180,0.020362999
2181,0.063418803
2182,0.003351467
2183,-0.028611821
2184,0.039501799
2185,0.021089423
2186,0.009421359
2187,-0.036615508
2188,-0.049833445
2189,0.106299053
2190,0.055803854
2191,-0.01210013
2192,-0.031913464
2193,-0.067053448
2194,-0.045775348
2195,0.007674178
2196,-0.028281476
2197,-0.142199773
2198,0.039740712
2199,-0.068036983
2200,-0.037352351
2201,-0.02698533
2202,-0.027129395
2203,0.020090478
2204,0.00624428
2205,0.047453959
2206,0.05044375
2207,-0.082203679
2208,-0.015114626
2209,-0.10570623
2210,0.027865593
2211,0.008256193
2212,-0.013441062
2213,0.035751947
2214,-0.049681698
2215,-0.066619759
2216,-0.007378241
2217,-0.012877778
2218,-0.102695674
2219,0.108840875
2220,0.060760253
2221,0.026434893
2222,-0.082026186
2223,0.070941201
2224,-0.064283703
2225,0.025041735
2226,0.005197417
2227,-0.050803836
2228,0.07069714
2229,-0.01450788
2230,-0.040724811
2231,-0.000378542
2232,-0.002103287
2233,-0.078058999
2234,-0.02752934
2235,-0.061658297
2236,-0.0154126
2237,0.096541383
2238,-0.066849722
2239,-0.023959245
2240,0.053761515
2241,0.063707058
2242,-0.029519483
2243,0.12628419
2244,0.055294234
2245,0.058858552
2246,-0.068947397
2247,0.004134705
2248,-0.016003445
2249,0.146961743
2250,-0.000961827
2251,-0.042448936
2252,-0.013572582
2253,-0.052761418
2254,0.045486319
2255,-0.001211304
2256,0.077883151
2257,-0.116390513
2258,-0.010597396
2259,0.007800947
2260,-0.026135275
2261,0.03111614
2262,0.041229141
2263,-0.0586004
2264,0.044059158
2265,-0.027383148
2266,0.011813054
2267,-0.069256751
2268,-0.017763063
2269,0.010939959
2270,0.016115661
2271,-0.052088293
2272,0.061915328
2273,-0.020595616
2274,-0.017519377
2275,0.015921514
2276,0.01502449
2277,0.002806079
2278,0.048119584
2279,-0.057232849
2280,0.072467347
2281,0.003967713
2282,0.0479685
2283,-0.042032053
2284,0.010389737
2285,0.05291811
2286,0.013551477
2287,0.028255961
2288,-0.042672524
2289,0.062551891
2290,0.063488823
2291,-0.03389734
2292,-0.022901662
2293,0.04335532
2294,-0.0286414
2295,0.018503003
2296,-0.002058139
2297,-0.033946819
2298,0.015013413
2299,0.028587498
2300,-0.014784688
2301,-0.002463597
2302,-0.004795474
2303,0.032692258
2304,-0.016269054
2305,0.065629463
2306,-0.033265811
2307,0.078117601
2308,-0.105787588
2309,-0.001749716
2310,0.022769929
2311,-0.055875001
2312,0.032003697
2313,-0.033158482
2314,0.01092451
2315,0.005903026
2316,-0.11493962
2317,0.046673315
2318,0.057320771
2319,0.029471463
2320,0.010534543
2321,0.06188541
2322,0.006682383
2323,0.047217307
2324,0.024282426
2325,0.051441914
2326,-0.010787656
2327,0.059404772
2328,-0.007469506
2329,0.131078092
2330,0.005444651
2331,0.054743779
2332,-0.043350514
2333,-0.075875424
2334,-0.023375425
2335,-0.042627414
2336,0.019901587
2337,-0.010023105
2338,0.038939483
2339,0.002621732
2340,0.024632932
2341,0.13443424
2342,0.05866184
2343,0.031417951
2344,0.079952251
2345,-7.43E-05
2346,-0.054199947
2347,0.094558258
2348,0.049546179
2349,-0.034838809
2350,-0.008763855
2351,-0.033946555
2352,-0.044052798
2353,0.024683611
2354,-0.016243379
2355,-0.020648014
2356,-0.053080874
2357,0.041306268
2358,-0.085749309
2359,0.012373198
2360,0.021711315
2361,0.025970363
2362,-0.018966601
2363,0.042854779
2364,0.017705664
2365,0.058287486
2366,-0.109100541
2367,-0.037749536
2368,-0.064623167
2369,0.006726065
2370,-0.102538625
2371,-0.02189626
2372,-0.003718781
2373,-0.096734289
2374,-0.022407975
2375,0.012428292
2376,-0.097999208
2377,-0.001960418
2378,0.042288626
2379,-0.011364593
2380,-0.0648227
2381,-0.046377219
2382,0.033491156
2383,-0.00237931
2384,-0.004352155
2385,-0.036481567
2386,-0.031685629
2387,-0.116764327
2388,0.004415313
2389,-0.072487829
2390,-0.000415985
2391,0.088721035
2392,-0.076244765
2393,0.016314541
2394,0.054878761
2395,-0.028041488
2396,-0.031715261
2397,-0.042132347
2398,0.078040137
2399,0.041717746
2400,-0.029514524
2401,-0.021758605
2402,-0.068775848
2403,0.022994856
2404,-0.0642843
2405,-0.013802452
2406,-0.00928177
2407,-0.037673226
2408,0.006305322
2409,-0.058770711
2410,-0.102629025
2411,0.015363905
2412,0.058574032
2413,-0.002694493
2414,0.048651372
2415,0.041246644
2416,-0.050543049
2417,0.00334762
2418,0.079034083
2419,-0.04816728
2420,-0.08324727
2421,-0.001035821
2422,-0.012748975
2423,-0.055258303
2424,-0.044595247
2425,0.006431247
2426,0.053339713
2427,-0.031831228
2428,0.0326073
2429,-0.032424272
2430,-0.037531721
2431,0.006494169
2432,-0.056669694
2433,0.013189413
2434,-0.013605073
2435,0.045796991
2436,-0.053130096
2437,-0.058954619
2438,-0.014186472
2439,0.027444342
2440,-0.016924543
2441,-0.08530843
2442,0.011186824
2443,-0.025091434
2444,-0.023389576
2445,0.022357294
2446,-0.086076344
2447,0.032703722
2448,-0.016476415
2449,-0.068352493
2450,0.044342882
2451,0.048140196
2452,0.042804915
2453,0.026087537
2454,-0.035646459
2455,-0.044182809
2456,0.045534784
2457,0.012419532
2458,-0.118211663
2459,-0.103287257
2460,-0.010243358
2461,-0.003421263
2462,-0.035694094
2463,0.008290167
2464,0.035044531
2465,-0.062851402
2466,-0.022807891
2467,0.034711961
2468,0.07503751
2469,0.095301089
2470,-0.014736984
2471,-0.039625147
2472,0.016073944
2473,-0.018727371
2474,0.064497761
2475,0.017167591
2476,0.07896665
2477,0.063816841
2478,0.071772285
2479,0.007375459
2480,0.047693987
2481,-0.016182327
2482,-0.055272402
2483,0.017747846
2484,0.015338382
2485,0.099028154
2486,0.088549657
2487,-0.00327602
2488,-0.027841057
2489,0.055226468
2490,0.013763055
2491,-0.100344945
2492,-0.0008678
2493,-0.079640941
2494,0.003939831
2495,0.018462714
2496,-0.043749273
2497,-0.006739875
2498,-0.035956513
2499,0.049025806
2500,-0.025123996
2501,0.058770459
2502,0.007075218
2503,0.041796527
2504,-0.003096584
2505,0.095287127
2506,0.061619721
2507,-0.07299566
2508,-0.024502817
2509,-0.023660607
2510,0.149850709
2511,-0.072784703
2512,0.062257281
2513,0.094416803
2514,-0.01943311
2515,0.005076693
2516,0.09520839
2517,-0.059976714
2518,0.076064688
2519,0.005456788
2520,0.033612447
2521,0.068525365
2522,0.147588361
2523,0.017715022
2524,0.036235521
2525,-0.076814232
2526,-0.105609617
2527,0.074471865
2528,-0.050352314
2529,-0.03575032
2530,-0.055588664
2531,0.013499019
2532,-0.045402438
2533,0.001896536
2534,0.034804863
2535,0.016578069
2536,0.04686507
2537,0.018272177
2538,-0.045040835
2539,0.085928922
2540,-0.058162514
2541,-0.028074868
2542,0.013118988
2543,-0.111956492
2544,0.028946852
2545,0.039198928
2546,0.067477503
2547,0.010031549
2548,-0.022544368
2549,0.091696415
2550,-0.011809574
2551,0.043385854
2552,-0.01066538
2553,0.019221131
2554,-0.014000746
2555,-0.059082653
2556,-0.01095467
2557,-0.003638709
2558,-0.038841165
2559,0.041301455
2560,-0.063692415
2561,0.012532444
2562,-0.092434186
2563,-0.091387332
2564,-0.012254413
2565,-0.036835234
2566,0.068174647
2567,0.063417941
2568,-0.049921609
2569,0.013450706
2570,-0.06451349
2571,0.088403213
2572,0.001522224
2573,0.053105333
2574,0.087774203
2575,0.020220562
2576,0.055475877
2577,0.054764301
2578,-0.076329116
2579,-0.03931831
2580,-0.003028001
2581,-0.066401064
2582,0.016847408
2583,0.041961022
2584,-0.003405153
2585,-0.014377147
2586,0.070312917
2587,0.053112881
2588,0.000677307
2589,-0.001217664
2590,0.043535857
2591,0.031430837
2592,-0.094503578
2593,0.051944795
2594,0.026896297
2595,0.08632802
2596,0.012991525
2597,0.050801369
2598,-0.06403338
2599,-0.009970149
2600,-0.06374032
2601,-0.001919066
2602,-0.003083792
2603,-0.075755273
2604,0.01944045
2605,-0.026568429
2606,0.005488725
2607,0.011735127
2608,0.027131484
2609,0.033736325
2610,0.031025404
2611,0.020489482
2612,-0.012767273
2613,-0.020497856
2614,-0.13644015
2615,0.01071092
2616,0.093648498
2617,-0.010184146
2618,-0.072463267
2619,-0.036415202
2620,-0.048399031
2621,-0.042234292
2622,-0.041461821
2623,0.043707512
2624,-0.012141382
2625,-0.06015764
2626,0.047196654
2627,0.049889511
2628,-0.06137054
2629,0.054210639
2630,0.072911585
2631,-0.102894844
2632,0.027638493
2633,0.020529039
2634,-0.037365786
2635,-0.073772712
2636,0.011834229
2637,0.103798394
2638,-0.030101748
2639,0.1005247
2640,-0.022157201
2641,0.023167538
2642,-0.017355904
2643,-0.02411984
2644,0.019565171
2645,0.125167045
2646,-0.010140694
2647,-0.026610097
2648,-0.037750366
2649,-0.036424422
2650,0.035338088
2651,0.029290634
2652,0.016032498
2653,-0.020861649
2654,0.047538524
2655,-0.078816546
2656,0.025105151
2657,-0.074522672
2658,-0.077233514
2659,0.044647992
2660,-0.045514642
2661,0.045004582
2662,-0.056578205
2663,-0.055240437
2664,0.022347766
2665,-0.053020738
2666,-0.04036596
2667,0.016618688
2668,-0.025069485
2669,-0.002604831
2670,-0.152503473
2671,-0.018924201
2672,-0.051883098
2673,0.028047924
2674,0.037718418
2675,-0.000964938
2676,0.026150849
2677,0.062583294
2678,0.062186621
2679,-0.040186697
2680,-0.079936426
2681,0.066443779
2682,-0.017236345
2683,0.008539127
2684,0.004846073
2685,-0.013176483
2686,0.024579107
2687,-0.053542245
2688,-0.012414388
2689,-0.029824695
2690,-0.003087036
2691,-0.010100792
2692,-0.079602448
2693,-0.045916972
2694,0.028395647
2695,0.019380594
2696,-0.056509559
2697,0.077788906
2698,0.018905674
2699,-0.00550605
2700,-0.020285957
2701,0.009229037
2702,0.009271223
2703,-0.089056457
2704,-0.043234592
2705,0.072702194
2706,0.077177019
2707,0.012645355
2708,-0.0145556
2709,0.012775596
2710,-0.022707913
2711,-0.036025913
2712,-0.067570997
2713,-0.078858277
2714,0.039982569
2715,0.021071266
2716,0.068003775
2717,0.044346717
2718,-0.05717217
2719,0.048632314
2720,-0.02855989
2721,-0.065019706
2722,0.010614052
2723,0.018364537
2724,-0.064602897
2725,0.063753957
2726,-0.044202815
2727,0.059755456
2728,-0.01128737
2729,0.078879703
2730,0.020502313
2731,0.037266937
2732,-0.047436114
2733,-0.04393857
2734,-0.037620286
2735,0.056647989
2736,-0.026244609
2737,0.045623817
2738,0.021137243
2739,0.013689752
2740,-0.046412214
2741,0.021389113
2742,-0.013273357
2743,-0.012965201
2744,-0.116437545
2745,-0.019356263
2746,-0.046232637
2747,0.00885186
2748,0.017765073
2749,0.055632296
2750,-0.085679723
2751,0.050198108
2752,-0.023830205
2753,0.002884184
2754,0.002737329
2755,0.012734626
2756,-0.022204211
2757,0.019347868
2758,-0.000123652
2759,0.054064781
2760,-0.017091519
2761,-0.024655423
2762,-0.056450949
2763,0.052546355
2764,0.093163876
2765,-0.007627427
2766,0.000574471
2767,-0.006564813
2768,0.043012085
2769,0.038363958
2770,-0.016409377
2771,0.039465207
2772,0.0370742
2773,0.082827696
2774,-0.047990678
2775,-0.004539241
2776,0.038080751
2777,-0.041461114
2778,0.092649575
2779,-0.059137796
2780,0.020256031
2781,-0.0143909
2782,-0.014357863
2783,0.018654853
2784,0.006957424
2785,0.016066035
2786,0.020707612
2787,0.080407723
2788,-0.088359761
2789,0.044160124
2790,0.053918818
2791,0.018313083
2792,-0.063695699
2793,0.05530931
2794,0.003488489
2795,-0.002836104
2796,-0.016592281
2797,0.016439674
2798,0.079283782
2799,0.073033262
2800,0.011351553
2801,-0.081562173
2802,0.096069618
2803,0.006602313
2804,-0.042777577
2805,0.046415484
2806,-0.000651717
2807,0.010906367
2808,-0.017963352
2809,-0.059238219
2810,-0.005079743
2811,0.036793056
2812,0.076600273
2813,-0.010483562
2814,-0.037301545
2815,0.032626623
2816,0.047447112
2817,0.00619414
2818,-0.018500563
2819,-0.00455905
2820,-0.110514915
2821,-0.047545013
2822,-0.040622335
2823,-0.032670675
2824,0.02353631
2825,0.001237381
2826,0.027450844
2827,0.046871629
2828,0.017438207
2829,0.021554003
2830,0.05188638
2831,0.034705054
2832,0.058095911
2833,-0.060735889
2834,0.040098477
2835,-0.077735341
2836,0.02072413
2837,0.011793707
2838,-0.037973419
2839,-0.027324647
2840,0.081566471
2841,0.022410631
2842,-0.030373797
2843,-0.023594233
2844,0.042683335
2845,0.015699652
2846,-0.007840379
2847,-0.068721742
2848,0.006671533
2849,-0.016012565
2850,0.111689095
2851,-0.018756847
2852,0.031863059
2853,-0.045287939
2854,0.045984525
2855,0.002623297
2856,0.07172672
2857,-0.041125693
2858,-0.061233389
2859,-0.01950107
2860,0.029992152
2861,0.021420623
2862,-0.046385542
2863,-0.067415867
2864,-0.000175655
2865,0.048391188
2866,-0.029628436
2867,0.0135539
2868,-0.106021938
2869,-0.060933153
2870,0.022367641
2871,-0.003820957
2872,0.027110629
2873,0.038510103
2874,0.030796478
2875,0.050105796
2876,0.009888722
2877,-0.048118424
2878,-0.10911252
2879,0.003841446
2880,-0.010210529
2881,-0.003931047
2882,-0.032623934
2883,0.001109854
2884,-0.085964227
2885,0.096411062
2886,0.041637862
2887,-0.044321173
2888,-0.037597397
2889,0.074452372
2890,0.020548731
2891,0.060268045
2892,-0.016808091
2893,-0.114576297
2894,-0.063077913
2895,0.038968075
2896,-0.038316604
2897,0.004465552
2898,0.063920804
2899,0.160808196
2900,-0.040070974
2901,-0.023288486
2902,-0.011610994
2903,0.047020058
2904,0.045216981
2905,0.010155101
2906,0.009753847
2907,-0.012667155
2908,0.010186354
2909,-0.073915773
2910,-0.044404303
2911,0.083343889
2912,0.021298448
2913,0.078736332
2914,0.020591718
2915,0.041425363
2916,-0.000711652
2917,0.03588326
2918,0.098412303
2919,-0.054916923
2920,-0.094849166
2921,0.005813154
2922,-0.028554922
2923,-0.069331671
2924,-0.002970999
2925,-0.045617455
2926,-0.051032333
2927,-0.020685415
2928,0.035763767
2929,-0.01171041
2930,-0.057034555
2931,-0.027778694
2932,-0.088010658
2933,-0.041201541
2934,0.038429815
2935,0.094437299
2936,0.071746545
2937,0.088031461
2938,0.031916323
2939,-0.058733135
2940,-0.025478743
2941,0.097625668
2942,0.045792157
2943,0.016951325
2944,0.030039581
2945,0.004622808
2946,-0.041416818
2947,0.047563352
2948,0.063182488
2949,0.043008255
2950,0.004036559
2951,-0.052946489
2952,-0.066177502
2953,0.091531366
2954,0.041793991
2955,0.013425293
2956,0.024780835
2957,-0.009466553
2958,0.030046091
2959,-0.041315988
2960,0.006667338
2961,-0.032506941
2962,0.047777424
2963,-0.037074996
2964,0.010090688
2965,-0.015812255
2966,0.041226983
2967,-0.009049355
2968,-0.038094067
2969,0.004277506
2970,0.102233288
2971,-0.009576446
2972,-0.00644154
2973,-0.04767912
2974,0.029269825
2975,-0.00196922
2976,0.029568721
2977,-0.02182233
2978,-0.013784614
2979,0.057145317
2980,-0.042719418
2981,-0.03392878
2982,-0.020871847
2983,0.047578654
2984,-0.002470525
2985,0.03791916
2986,-0.0062528
2987,0.022842818
2988,0.039075666
2989,-0.001615358
2990,0.088285571
2991,-0.037184746
2992,0.065638006
2993,0.026506689
2994,-0.01140636
2995,0.003620036
2996,0.046710032
2997,-0.080301287
2998,0.002157953
2999,-0.025274795
3000,-0.06046853
3001,0.079612228
3002,0.057169713
3003,-0.021079305
3004,0.046348611
3005,-0.00258883
3006,0.023038362
3007,0.087708782
3008,0.00971495
3009,-0.09272129
3010,0.039437805
3011,-0.090067297
3012,0.014473247
3013,0.037207895
3014,-0.008727771
3015,-0.077415166
3016,0.042587546
3017,-0.013358315
3018,-0.12027685
3019,0.046913126
3020,-0.085585205
3021,-0.032415065
3022,-0.099503871
3023,-0.04848699
3024,-0.074417462
3025,-0.046602924
3026,0.053185188
3027,0.055867347
3028,0.014064182
3029,0.022439824
3030,-0.045192655
3031,-0.005616856
3032,-0.011550246
3033,-0.072157793
3034,0.028333194
3035,0.013485552
3036,-0.057417563
3037,0.014381704
3038,0.021832592
3039,-0.057203874
3040,-0.009328573
3041,0.006594663
3042,-0.010146138
3043,0.058370571
3044,-0.037582021
3045,0.03370772
3046,-0.005246809
3047,0.060006284
3048,0.015463784
3049,-0.066360054
3050,0.112233473
3051,-0.044566582
3052,0.005257786
3053,-0.036452319
3054,0.003521833
3055,-0.012964932
3056,-0.024927097
3057,-0.057241589
3058,-0.004353035
3059,0.007931134
3060,0.001727478
3061,0.012238243
3062,0.06110694
3063,-0.032320743
3064,-0.111473956
3065,-0.011544411
3066,-0.034349497
3067,0.021111865
3068,0.047947205
3069,0.083267126
3070,0.079602386
3071,-0.033664474
3072,0.009884645
3073,0.077031911
3074,-0.024369234
3075,0.02664451
3076,-0.13517651
3077,-0.10144556
3078,0.087977866
3079,0.034826317
3080,0.061905623
3081,-0.03845389
3082,0.001969776
3083,-0.00715554
3084,0.003615271
3085,0.106047492
3086,0.042668048
3087,0.022708115
3088,-0.018704371
3089,0.052752694
3090,-0.057256376
3091,0.077721733
3092,-0.011730063
3093,0.040181342
3094,0.024728635
3095,-0.039191146
3096,-0.001027323
3097,-0.039371588
3098,-0.014009031
3099,0.031815137
3100,-0.001079868
3101,0.058917336
3102,0.012811085
3103,0.113328294
3104,0.052975662
3105,0.075004617
3106,0.016324615
3107,-0.053154196
3108,0.002645062
3109,0.006671268
3110,-0.009968383
3111,-0.08110578
3112,-0.043308958
3113,0.148381186
3114,0.059205115
3115,0.045388641
3116,-0.012121725
3117,0.036700236
3118,0.044375784
3119,-0.010743808
3120,0.033693886
3121,0.014106914
3122,0.055122275
3123,-0.001934152
3124,-0.046091729
3125,0.036811409
3126,0.079501977
3127,-0.063691841
3128,0.001381117
3129,0.078554222
3130,0.01218296
3131,-0.088118514
3132,-0.021043751
3133,-0.009389799
3134,0.00411728
3135,0.019962716
3136,0.007864764
3137,0.021379161
3138,0.029110908
3139,0.067412521
3140,0.015134114
3141,0.05967812
3142,0.054397594
3143,0.087461747
3144,0.008009934
3145,-0.058473433
3146,0.014661006
3147,-0.023359218
3148,0.050250992
3149,-0.062943806
3150,-0.000103529
3151,0.061851066
3152,0.081092241
3153,-0.050670019
3154,-0.039424429
3155,-0.037038313
3156,0.055451467
3157,0.097883866
3158,-0.076098026
3159,-0.001073957
3160,0.001409294
3161,-0.061214354
3162,-0.016803159
3163,0.069387941
3164,0.002494072
3165,0.014702774
3166,0.032390615
3167,0.021381225
3168,0.023339778
3169,-0.003402319
3170,0.072595571
3171,-0.094949954
3172,-0.024825557
3173,-0.151289482
3174,-0.007431722
3175,-0.10257412
3176,0.002497216
3177,0.067133609
3178,-0.00679386
3179,-0.065762054
3180,-0.073997369
3181,-0.033809369
3182,-0.075927349
3183,-0.018759462
3184,0.002058503
3185,0.039157463
3186,-0.014418201
3187,-0.008699063
3188,0.013891841
3189,-0.125791921
3190,0.030611439
3191,0.051002756
3192,-0.002696921
3193,-0.002497668
3194,-0.135856413
3195,-0.06279337
3196,0.057222381
3197,-0.02688601
3198,-0.016450348
3199,-0.119674763
3200,0.034669847
3201,0.016847728
3202,-0.019205819
3203,0.055651247
3204,-0.008258006
3205,0.072680662
3206,0.074706939
3207,0.002198701
3208,-0.128340316
3209,-0.019869467
3210,-0.038493031
3211,0.019960446
3212,-0.019166304
3213,0.003450348
3214,0.003980208
3215,0.024624032
3216,0.095347857
3217,0.013296695
3218,0.016892728
3219,-0.048421429
3220,0.000153274
3221,-0.051938097
3222,0.024670577
3223,-0.024262282
3224,0.008469451
3225,0.061218004
3226,-0.016516636
3227,0.011050216
3228,0.097665818
3229,0.063519911
3230,0.061205634
3231,-0.000267984
3232,-0.066036053
3233,0.021436532
3234,0.012209927
3235,0.018680336
3236,-0.056553478
3237,-0.02219849
3238,0.037889066
3239,0.002930628
3240,0.013770423
3241,0.131715973
3242,0.039149331
3243,0.151031156
3244,0.033737514
3245,-0.086428905
3246,-0.02366797
3247,0.083787881
3248,0.022552726
3249,-0.008763862
3250,-0.01619332
3251,0.027437361
3252,-0.007509742
3253,-0.055611518
3254,-0.046814737
3255,-0.069219246
3256,0.048140461
3257,-0.060504244
3258,-0.014940838
3259,0.006134153
3260,0.010407964
3261,0.031162921
3262,-0.022580656
3263,-0.005304875
3264,-0.054720329
3265,0.031790459
3266,-0.022777637
3267,-0.026195034
3268,0.046258755
3269,-0.056646333
3270,0.07755348
3271,-0.050540214
3272,-0.058268162
3273,0.014730673
3274,0.001946779
3275,0.012396628
3276,-0.032941739
3277,0.087384011
3278,0.003826442
3279,-0.012310117
3280,0.040588095
3281,-0.015084224
3282,0.010819733
3283,-0.02711166
3284,-0.014864808
3285,0.047205049
3286,-0.036765606
3287,-0.005337802
3288,-0.024441829
3289,0.096581035
3290,0.009290489
3291,-0.093199186
3292,-0.024499126
3293,-0.086358297
3294,-0.110361731
3295,-0.040670237
3296,0.037848298
3297,0.057135891
3298,0.007901484
3299,-0.025217326
3300,0.046918943
3301,-0.024657561
3302,0.014459592
3303,-0.051675979
3304,-0.02856889
3305,-0.033071212
3306,-0.024651361
3307,0.034969262
3308,-0.026713924
3309,0.016209275
3310,-0.037080944
3311,-0.006686038
3312,-0.002278368
3313,0.029878891
3314,-0.048660631
3315,0.037010276
3316,-0.040144327
3317,0.016425775
3318,0.080373865
3319,-0.107386092
3320,0.043951047
3321,0.086355953
3322,0.058516185
3323,-0.038874699
3324,-0.08485335
3325,0.002890244
3326,-0.02467462
3327,-0.061324169
3328,0.054314622
3329,0.024980378
3330,-0.039310351
3331,0.02320483
3332,0.029953616
3333,-0.02369566
3334,-0.060258708
3335,0.00836304
3336,0.001711203
3337,-0.050515871
3338,0.022900208
3339,-0.112562342
3340,-0.024234676
3341,-0.07636254
3342,0.047423273
3343,-0.005754812
3344,-0.043476627
3345,0.012880881
3346,-0.071709906
3347,-0.012344371
3348,-0.03440231
3349,-0.137556165
3350,0.027330467
3351,-0.041073567
3352,-0.123039561
3353,0.003061387
3354,-0.071994754
3355,0.000227662
3356,0.040101775
3357,-0.002719919
3358,0.054601678
3359,-0.027847871
3360,0.021621302
3361,-0.080537002
3362,0.053430698
3363,0.057839216
3364,-0.000510837
3365,0.017941485
3366,-0.032598085
3367,0.004183339
3368,0.051152733
3369,-0.006043778
3370,0.007075688
3371,0.053496231
3372,0.047593417
3373,0.046814859
3374,-0.003733529
3375,0.029047023
3376,-0.019537866
3377,-0.068285575
3378,-0.014813265
3379,-0.099424657
3380,-0.060531723
3381,-0.01712882
3382,0.071619315
3383,-0.037849228
3384,-0.058440957
3385,0.029971284
3386,-0.055942211
3387,-0.032866687
3388,0.000993848
3389,0.051831368
3390,-0.011047296
3391,-0.053907945
3392,0.047195715
3393,-0.036594393
3394,0.007889475
3395,0.011084698
3396,0.041942207
3397,-0.031623834
3398,0.025813444
3399,-0.027701017
3400,0.094735339
3401,-0.042685575
3402,0.081079612
3403,0.047929694
3404,-0.012595878
3405,-0.025454322
3406,-0.036660001
3407,0.044230181
3408,-0.047054374
3409,-0.040455529
3410,0.049690107
3411,-0.027357458
3412,0.022500957
3413,0.013989721
3414,-0.024925308
3415,-0.055255653
3416,-0.002444381
3417,-0.015699308
3418,-0.031360028
3419,-0.123488641
3420,0.001997537
3421,-0.016875128
3422,-0.064097561
3423,-0.131549804
3424,-0.034368186
3425,0.081124285
3426,-0.015301116
3427,0.018349382
3428,0.011558043
3429,0.012414054
3430,0.095232063
3431,0.055909823
3432,0.018211559
3433,0.061807706
3434,0.012721725
3435,-0.061614272
3436,0.103188023
3437,0.081706077
3438,-0.009328208
3439,0.002680524
3440,-0.021298599
3441,0.013628978
3442,-0.011506617
3443,0.004547631
3444,-0.030532326
3445,-0.090367577
3446,-0.00058175
3447,0.018924601
3448,-0.026483647
3449,-0.034817411
3450,0.091686079
3451,0.005528476
3452,-0.030660648
3453,0.011347117
3454,-0.02427666
3455,-0.070114432
3456,-0.024758946
3457,0.016353419
3458,-0.02753964
3459,-0.012436766
3460,-0.055101624
3461,0.103685237
3462,0.008329102
3463,0.066187933
3464,-0.02892705
3465,-0.006252324
3466,0.052315258
3467,-0.060946089
3468,0.060713632
3469,-0.080888822
3470,0.045530076
3471,0.066981009
3472,-0.065916049
3473,0.011754245
3474,0.002458811
3475,-0.007952818
3476,-0.018706579
3477,0.011519168
3478,-0.024807841
3479,-0.005733261
3480,-0.045185013
3481,-0.036673752
3482,-0.05293292
3483,-0.00176873
3484,0.067963373
3485,0.096778122
3486,0.023189968
3487,0.010309627
3488,-0.100920277
3489,0.000357675
3490,-0.016747913
3491,-0.047248361
3492,-0.009542575
3493,0.043586492
3494,0.058677277
3495,0.104605417
3496,0.102128548
3497,-0.003457495
3498,0.030066185
3499,0.081064427
3500,0.006440526
3501,0.091321633
3502,0.041115863
3503,-0.112961302
3504,-0.005950535
3505,0.000208914
3506,0.049547056
3507,0.029952454
3508,0.016975333
3509,-0.044332319
3510,0.009011936
3511,0.070327538
3512,-0.040815701
3513,0.040860588
3514,0.028571628
3515,0.032621905
3516,0.007587517
3517,-0.026797222
3518,-0.034915426
3519,0.044012408
3520,0.002655377
3521,0.012295676
3522,0.023979059
3523,-0.002828667
3524,-0.043797558
3525,-0.024994177
3526,0.052877627
3527,0.021661855
3528,-0.021259883
3529,-0.025437939
3530,-0.047270334
3531,0.010189666
3532,0.094315825
3533,0.036427045
3534,0.047776662
3535,0.038343993
3536,0.052622321
3537,0.036481993
3538,-0.023754414
3539,-0.003234624
3540,-0.082902335
3541,-0.076221373
3542,-0.0223422
3543,0.030877455
3544,-0.017909045
3545,-0.088084857
3546,-0.027834914
3547,-0.003830624
3548,0.053600193
3549,-0.030219479
3550,-0.05024777
3551,-0.007988998
3552,-0.024083593
3553,-0.052380726
3554,-0.083686626
3555,0.06267055
3556,-0.047842409
3557,-0.029601091
3558,-0.065174665
3559,-0.05275729
3560,0.059652806
3561,-0.038624035
3562,-0.046291548
3563,-0.014237069
3564,-0.029771441
3565,-0.029807063
3566,0.033438889
3567,0.029007733
3568,-0.031190355
3569,0.122333123
3570,-0.079879988
3571,0.059203325
3572,0.051408921
3573,0.040053153
3574,0.055400951
3575,0.062370529
3576,0.016967736
3577,-0.071540653
3578,-0.086419361
3579,-0.007600938
3580,0.001127777
3581,-0.107560206
3582,-0.006647222
3583,0.020899179
3584,0.016701942
3585,-0.012043868
3586,-0.03739353
3587,0.021683835
3588,-0.023081015
3589,-0.057125165
3590,-0.029419
3591,0.023057893
3592,0.018882508
3593,-0.011190415
3594,0.09727661
3595,0.107658852
3596,0.033477523
3597,-0.029446709
3598,-0.041461451
3599,-0.048790746
3600,0.04080791
3601,0.038598801
3602,-0.021573552
3603,-0.015543684
3604,-0.05511821
3605,0.048789564
3606,-0.084740494
3607,-0.07100767
3608,0.065133023
3609,0.078321637
3610,0.04432385
3611,0.072409843
3612,0.003289603
3613,-0.016930983
3614,0.003207615
3615,0.028184228
3616,0.018250617
3617,0.013278321
3618,-0.055336196
3619,0.035913505
3620,0.009578747
3621,0.013933395
3622,-0.010029572
3623,-0.050299788
3624,-0.019027799
3625,0.005072715
3626,-0.0408967
3627,-0.043400168
3628,-0.02011957
3629,0.140365742
3630,-0.070672125
3631,-0.066321495
3632,-0.026893309
3633,0.064412291
3634,-0.059842397
3635,0.067321832
3636,0.101503601
3637,-0.023506317
3638,-0.02356703
3639,-0.108436294
3640,0.055097148
3641,0.039573238
3642,0.028500885
3643,0.094954218
3644,-0.001885123
3645,0.102383081
3646,-0.018033781
3647,0.043023771
3648,-0.011403633
3649,0.002998247
3650,0.080019506
3651,-0.03502971
3652,-0.007217994
3653,0.025792607
3654,0.012163657
3655,0.028810719
3656,0.001145765
3657,-0.041242441
3658,0.009194217
3659,-0.011548854
3660,-0.008454579
3661,0.030993267
3662,0.025242361
3663,0.058647338
3664,0.037977105
3665,-0.035603624
3666,-0.022234664
3667,-0.09068213
3668,-0.057692507
3669,-0.041699776
3670,0.062893663
3671,0.002382943
3672,0.019240801
3673,-0.074276599
3674,0.014374879
3675,0.003938987
3676,-0.048937494
3677,0.037087518
3678,0.120025864
3679,0.012458921
3680,-0.078557092
3681,-0.001402214
3682,9.97E-05
3683,0.043245481
3684,-0.005784931
3685,-0.088618965
3686,-0.065242508
3687,-0.086453799
3688,-0.002394934
3689,0.059403523
3690,-0.009723415
3691,0.009706432
3692,0.007172534
3693,0.004527759
3694,-0.107146849
3695,0.016000236
3696,0.014505894
3697,0.10991129
3698,0.008908128
3699,0.001567549
3700,0.017048977
3701,0.035558803
3702,0.058751987
3703,-0.038792614
3704,-0.027732243
3705,0.023647831
3706,0.047036455
3707,0.051893871
3708,0.080368151
3709,0.031945669
3710,-0.012899565
3711,0.010353881
3712,0.065835025
3713,-0.109566458
3714,-0.042636425
3715,-0.022926802
3716,-0.097876855
3717,0.033035241
3718,-0.042333653
3719,0.016229065
3720,0.05494046
3721,0.010218432
3722,0.013898561
3723,0.016706142
3724,-0.032805947
3725,0.058085947
3726,0.004613628
3727,0.003030585
3728,0.008063584
3729,-0.116650554
3730,-0.030050292
3731,-0.063165352
3732,-0.037831431
3733,0.037066809
3734,0.027925481
3735,0.06379796
3736,-0.034548571
3737,0.039714295
3738,0.004755879
3739,0.011181032
3740,0.023700731
3741,0.002103136
3742,-0.0724799
3743,-0.058451481
3744,-0.09279658
3745,-0.004208448
3746,0.018741764
3747,-0.078534971
3748,0.055734973
3749,-0.061942616
3750,0.046317345
3751,0.072530928
3752,0.013410227
3753,-0.033938913
3754,0.029334926
3755,-0.030187796
3756,-0.027334619
3757,0.027066654
3758,-0.010612851
3759,-0.03948584
3760,-0.076952126
3761,0.070024033
3762,0.099217998
3763,-0.043733531
3764,-0.09148656
3765,-0.054521015
3766,0.047991712
3767,0.085694324
3768,0.083933895
3769,-0.074479573
3770,-0.006461893
3771,-0.040140548
3772,0.04768809
3773,0.034307482
3774,0.032958597
3775,0.071059877
3776,-0.014757225
3777,0.063414912
3778,-0.043417707
3779,-0.050125803
3780,0.007876162
3781,-0.080816963
3782,-0.045267029
3783,-0.005965364
3784,0.009925774
3785,-0.009320113
3786,-0.019363697
3787,0.030838788
3788,0.018888242
3789,-0.0071632
3790,0.028104374
3791,0.044927823
3792,0.010288446
3793,-0.040509356
3794,-0.05718018
3795,0.057806164
3796,0.023500076
3797,0.003451692
3798,-0.005968874
3799,0.048543829
3800,0.031467318
3801,0.056322213
3802,-0.041449957
3803,0.010179857
3804,-0.061780663
3805,0.032560696
3806,0.052594091
3807,0.007468049
3808,-0.060868115
3809,-0.029855858
3810,0.043468227
3811,-0.035224569
3812,0.021281634
3813,0.091282205
3814,-0.05646032
3815,-0.040629035
3816,-0.048738183
3817,-0.052780449
3818,0.081686286
3819,0.000322894
3820,0.035404246
3821,0.027139762
3822,0.011880386
3823,-0.087977469
3824,-0.007982585
3825,-0.070447754
3826,0.001087627
3827,0.023731521
3828,0.004773543
3829,-0.012174399
3830,0.039023969
3831,0.022405468
3832,-0.015482766
3833,0.058595549
3834,0.032357245
3835,-0.082874318
3836,-0.031752782
3837,0.067534965
3838,-0.015772148
3839,-0.018604474
3840,0.02085177
3841,-0.067765704
3842,-0.112179882
3843,-0.035201684
3844,-0.020921681
3845,-0.079804341
3846,0.011591205
3847,-0.015961886
3848,-0.084662409
3849,-0.004480132
3850,-0.044824255
3851,-0.038312359
3852,-0.014060614
3853,0.064579803
3854,-0.00658606
3855,0.035614938
3856,0.029958722
3857,-0.009548033
3858,-0.026727502
3859,0.057293444
3860,-0.032377027
3861,-0.065229238
3862,0.051516638
3863,0.021536319
3864,-0.053462616
3865,-0.068688567
3866,0.015416452
3867,-0.030364529
3868,0.004491359
3869,-0.045560388
3870,0.015484997
3871,-0.054560205
3872,0.071279265
3873,-0.011518327
3874,0.087962337
3875,-0.006801886
3876,0.070558424
3877,-0.024476908
3878,0.142742553
3879,0.008733908
3880,-0.005458269
3881,-0.064672483
3882,-0.02211538
3883,0.159124953
3884,-0.009902647
3885,0.02579248
3886,-0.038229742
3887,0.05467346
3888,0.030008382
3889,-0.036343098
3890,0.07370206
3891,0.016983121
3892,-0.009126107
3893,-0.031862116
3894,0.080331819
3895,0.0263308
3896,0.000772538
3897,0.026502162
3898,0.062117203
3899,-0.02688893
3900,-0.063899657
3901,0.011529446
3902,0.069976214
3903,-0.064375181
3904,-0.105459753
3905,0.047225359
3906,0.034554455
3907,-0.061600119
3908,-0.088538014
3909,-0.037689862
3910,-0.016770447
3911,-0.037627206
3912,-0.013275241
3913,-0.086102913
3914,-0.031470987
3915,-0.058932848
3916,-0.060064234
3917,0.006258598
3918,-0.020094766
3919,0.043763501
3920,0.043085797
3921,0.008323679
3922,-0.023128122
3923,-0.011316339
3924,-0.007732015
3925,0.054446571
3926,0.046783249
3927,-0.072320212
3928,0.018929153
3929,0.02968374
3930,-0.000677235
3931,0.04401368
3932,0.003856987
3933,-0.012448441
3934,-0.008154765
3935,0.051632524
3936,0.053320357
3937,0.010584874
3938,-0.036065168
3939,0.004839548
3940,-0.012789297
3941,0.05805939
3942,-0.030975027
3943,0.051259121
3944,-0.007374249
3945,-0.077593346
3946,0.01766101
3947,0.011739738
3948,-0.043243439
3949,0.038018134
3950,0.077065849
3951,-0.095568076
3952,-0.04906185
3953,0.032746542
3954,-0.017737308
3955,0.013846725
3956,0.00657283
3957,-0.095250205
3958,0.007276475
3959,0.006824681
3960,0.078518169
3961,0.043328878
3962,-0.138337989
3963,-0.050199167
3964,-0.041211463
3965,-0.124198361
3966,0.021523175
3967,-0.028050117
3968,-0.030377964
3969,-0.052375342
3970,-0.00545834
3971,-0.000164015
3972,-0.091869612
3973,0.009099105
3974,0.016617635
3975,0.041760048
3976,-0.025847499
3977,0.063164546
3978,-0.030616341
3979,-0.088109101
3980,-0.050551937
3981,-0.009959872
3982,0.006790079
3983,-0.075136352
3984,0.045617453
3985,-0.01516777
3986,-0.031891668
3987,-0.052342783
3988,0.007897152
3989,-0.051295611
3990,-0.093722536
3991,0.007076255
3992,-0.006892973
3993,-0.01919975
3994,0.018976105
3995,-0.073620626
3996,-0.036811972
3997,-0.032757115
3998,0.096970137
3999,-0.075967927
4000,-0.072039368
