Raman Shift,Intensity 
400,8.399783501
401,8.388533122
402,8.406209879
403,8.403274318
404,8.410807267
405,8.423174533
406,8.426797497
407,8.403263651
408,8.392541088
409,8.393732887
410,8.384238922
411,8.422966118
412,8.417934309
413,8.385220516
414,8.388030223
415,8.38757394
416,8.409733112
417,8.400359465
418,8.395966138
419,8.378495598
420,8.410139587
421,8.386561326
422,8.426224244
423,8.39626132
424,8.394621009
425,8.403026471
426,8.402325894
427,8.399796239
428,8.404495024
429,8.393733627
430,8.405906816
431,8.412758198
432,8.410147681
433,8.431943557
434,8.421698332
435,8.435918551
436,8.398244596
437,8.411115505
438,8.426542035
439,8.425078814
440,8.436867756
441,8.459902036
442,8.418214317
443,8.456118282
444,8.479958854
445,8.489474457
446,8.47114062
447,8.51192958
448,8.491582985
449,8.535344884
450,8.531573521
451,8.539696087
452,8.552705183
453,8.561030966
454,8.583862987
455,8.591500256
456,8.600998469
457,8.626515272
458,8.598394986
459,8.596790284
460,8.609948387
461,8.61174047
462,8.609873344
463,8.57256053
464,8.56856403
465,8.58177215
466,8.557934713
467,8.531195478
468,8.546281818
469,8.507898099
470,8.512165668
471,8.482603552
472,8.515861361
473,8.48135871
474,8.464391048
475,8.455066767
476,8.466803616
477,8.443404225
478,8.458092046
479,8.419727573
480,8.437966172
481,8.410860403
482,8.422104422
483,8.390736198
484,8.386736215
485,8.411368625
486,8.409017355
487,8.380139791
488,8.394858998
489,8.401617115
490,8.381799843
491,8.344187496
492,8.410647098
493,8.409791501
494,8.40072778
495,8.394194583
496,8.41036091
497,8.406527173
498,8.363733532
499,8.414044728
500,8.392312476
501,8.39879539
502,8.40425467
503,8.410817955
504,8.390612557
505,8.402426956
506,8.395445013
507,8.41287505
508,8.401730071
509,8.402636601
510,8.409725567
511,8.393663958
512,8.421965642
513,8.408998541
514,8.397888749
515,8.394362199
516,8.413981616
517,8.39698475
518,8.389611989
519,8.385250841
520,8.391957881
521,8.414812207
522,8.406483774
523,8.39678255
524,8.431837995
525,8.406243289
526,8.392261748
527,8.406269612
528,8.401580519
529,8.393171742
530,8.412897282
531,8.390898047
532,8.395736574
533,8.38007348
534,8.384534755
535,8.428750065
536,8.39737735
537,8.415667353
538,8.402737356
539,8.3814687
540,8.407510671
541,8.405435577
542,8.397205971
543,8.407396643
544,8.397149769
545,8.395566687
546,8.379005306
547,8.424824074
548,8.408123818
549,8.412475879
550,8.441047358
551,8.419052469
552,8.407516719
553,8.409364845
554,8.394645274
555,8.380341302
556,8.38839607
557,8.404697633
558,8.433905161
559,8.385532432
560,8.397593428
561,8.387400541
562,8.420499294
563,8.397237626
564,8.372506906
565,8.412472864
566,8.400446258
567,8.364998246
568,8.401688934
569,8.404919276
570,8.403795009
571,8.390983006
572,8.372430838
573,8.40673105
574,8.396918859
575,8.395109944
576,8.399069037
577,8.387224664
578,8.438400089
579,8.431492888
580,8.387963125
581,8.396272199
582,8.420935818
583,8.37830914
584,8.408799663
585,8.407580691
586,8.405952774
587,8.419754954
588,8.405145489
589,8.409494763
590,8.412064953
591,8.406155839
592,8.410566535
593,8.392457378
594,8.415776885
595,8.426043109
596,8.40282822
597,8.422851994
598,8.395770574
599,8.392425005
600,8.425500502
601,8.39735357
602,8.412961331
603,8.388507769
604,8.405310987
605,8.398537376
606,8.4005486
607,8.417900538
608,8.405966757
609,8.402906679
610,8.403553943
611,8.386001962
612,8.417588368
613,8.396105589
614,8.39763017
615,8.413487331
616,8.393199073
617,8.374319717
618,8.388690412
619,8.386755224
620,8.427837805
621,8.388811049
622,8.403552091
623,8.406238222
624,8.414216145
625,8.412562805
626,8.391705984
627,8.417339245
628,8.396094044
629,8.412977506
630,8.413723849
631,8.405588649
632,8.396617338
633,8.3848327
634,8.381663018
635,8.390203485
636,8.403153786
637,8.419178349
638,8.406695656
639,8.393703082
640,8.36758116
641,8.392743283
642,8.394476476
643,8.405745149
644,8.42168645
645,8.415951926
646,8.446840313
647,8.392030342
648,8.409000655
649,8.425255214
650,8.407796886
651,8.416280701
652,8.432164553
653,8.417757692
654,8.414963846
655,8.391048527
656,8.398575326
657,8.391921308
658,8.408159972
659,8.418121675
660,8.367851327
661,8.40664284
662,8.384812912
663,8.392823588
664,8.376916317
665,8.403662617
666,8.396418196
667,8.403599884
668,8.398349711
669,8.398667845
670,8.403028878
671,8.439348281
672,8.399592205
673,8.407323775
674,8.392152847
675,8.391682776
676,8.405592177
677,8.399626908
678,8.395024197
679,8.398527064
680,8.414733034
681,8.366449437
682,8.381269819
683,8.385294391
684,8.429412589
685,8.411817969
686,8.379097483
687,8.406824496
688,8.397377083
689,8.396637273
690,8.403551349
691,8.390692424
692,8.389297124
693,8.407267273
694,8.401381073
695,8.395245165
696,8.426524734
697,8.398888351
698,8.437682172
699,8.374777135
700,8.40518967
701,8.401614891
702,8.399882261
703,8.402520827
704,8.384126155
705,8.411164516
706,8.403843854
707,8.411426804
708,8.395175555
709,8.39585486
710,8.409919506
711,8.364712868
712,8.396510395
713,8.398348597
714,8.408378901
715,8.405420483
716,8.393759409
717,8.408810059
718,8.366432138
719,8.394741444
720,8.393360971
721,8.37974094
722,8.408666638
723,8.399788461
724,8.430681133
725,8.385783298
726,8.403754907
727,8.392750452
728,8.384580157
729,8.378323076
730,8.398748614
731,8.39876182
732,8.400602317
733,8.406673558
734,8.409930909
735,8.407828344
736,8.398631927
737,8.392431924
738,8.394332931
739,8.407458921
740,8.404745085
741,8.429419909
742,8.38680397
743,8.379539109
744,8.393578737
745,8.403831804
746,8.396648939
747,8.410398179
748,8.403762933
749,8.397729622
750,8.425229195
751,8.369449174
752,8.404508056
753,8.419987485
754,8.406088139
755,8.421237975
756,8.395855764
757,8.38361262
758,8.40910359
759,8.407434119
760,8.389577496
761,8.37130631
762,8.395555351
763,8.385280553
764,8.404804456
765,8.404845992
766,8.3853466
767,8.397060123
768,8.404346716
769,8.394386317
770,8.397514315
771,8.398101428
772,8.412281301
773,8.4314061
774,8.402815079
775,8.393461894
776,8.39701879
777,8.38541599
778,8.406178642
779,8.386352226
780,8.412260722
781,8.402724783
782,8.399936801
783,8.401088594
784,8.423361936
785,8.38909996
786,8.404405174
787,8.405291187
788,8.421314482
789,8.410766858
790,8.402937246
791,8.394533489
792,8.378310363
793,8.396471782
794,8.40209142
795,8.374327862
796,8.400005688
797,8.383001186
798,8.402209064
799,8.440359927
800,8.405091308
801,8.416903987
802,8.386368432
803,8.395520352
804,8.381769631
805,8.375906563
806,8.434763232
807,8.394891479
808,8.379088906
809,8.415986708
810,8.394659068
811,8.400536657
812,8.412796487
813,8.399101508
814,8.415108387
815,8.392869097
816,8.37959386
817,8.39711302
818,8.411038846
819,8.41530401
820,8.394586066
821,8.37260364
822,8.38982443
823,8.406732358
824,8.420760004
825,8.394441892
826,8.409763599
827,8.395152323
828,8.404318244
829,8.385614309
830,8.383157465
831,8.410049767
832,8.369424494
833,8.389056421
834,8.393596805
835,8.379337958
836,8.40201881
837,8.372065993
838,8.38283066
839,8.411001722
840,8.364745794
841,8.378715805
842,8.430013575
843,8.401997407
844,8.395695833
845,8.400346045
846,8.404258769
847,8.386386731
848,8.389335652
849,8.423484719
850,8.379771413
851,8.371281997
852,8.396179743
853,8.39002814
854,8.418770466
855,8.39715289
856,8.415899361
857,8.421309037
858,8.385616986
859,8.418842387
860,8.410120803
861,8.419394987
862,8.380818795
863,8.406582075
864,8.414752454
865,8.391009809
866,8.397676061
867,8.359881736
868,8.39614671
869,8.37901454
870,8.400717402
871,8.400135924
872,8.407873563
873,8.392289232
874,8.406032705
875,8.39767615
876,8.372478082
877,8.389537887
878,8.398958008
879,8.387629875
880,8.388755791
881,8.396999133
882,8.396836282
883,8.406846222
884,8.38968511
885,8.380037669
886,8.376465225
887,8.402750089
888,8.396143904
889,8.394054292
890,8.414884831
891,8.40277931
892,8.400019132
893,8.378717706
894,8.403527652
895,8.396283012
896,8.417234041
897,8.406169454
898,8.366477154
899,8.39342642
900,8.387188624
901,8.416228708
902,8.403487545
903,8.40062242
904,8.417629523
905,8.40861303
906,8.41121592
907,8.393774269
908,8.412198501
909,8.403692125
910,8.408109393
911,8.385292903
912,8.39131017
913,8.411015921
914,8.376658839
915,8.38733879
916,8.411375213
917,8.406090583
918,8.387211808
919,8.409569695
920,8.40800885
921,8.39612922
922,8.42505069
923,8.417032959
924,8.40870953
925,8.411040501
926,8.399144701
927,8.393575879
928,8.406059237
929,8.411117276
930,8.396625716
931,8.416216483
932,8.41735489
933,8.4386542
934,8.413459831
935,8.435031473
936,8.447346578
937,8.422388629
938,8.426849036
939,8.40801852
940,8.451475478
941,8.468287406
942,8.421289499
943,8.444251184
944,8.463462668
945,8.463345746
946,8.455140493
947,8.492170138
948,8.514426869
949,8.536505279
950,8.542778564
951,8.558713372
952,8.594170524
953,8.63089943
954,8.664935138
955,8.678611055
956,8.711736211
957,8.756114694
958,8.791389499
959,8.814227704
960,8.831215233
961,8.880430563
962,8.938256545
963,8.963360082
964,9.000157023
965,9.076589809
966,9.079909967
967,9.099226649
968,9.16353836
969,9.206192579
970,9.243595318
971,9.278329816
972,9.281524948
973,9.332459833
974,9.322742846
975,9.353822662
976,9.379878151
977,9.385808703
978,9.402321337
979,9.406845812
980,9.419216208
981,9.415148732
982,9.401359021
983,9.383112525
984,9.355525846
985,9.32216318
986,9.303627781
987,9.326535371
988,9.273877843
989,9.246329076
990,9.20681075
991,9.173908539
992,9.145216647
993,9.10587143
994,9.085049039
995,9.042939421
996,8.988726138
997,8.990454052
998,8.988112385
999,8.967307839
1000,8.924419653
1001,8.883850333
1002,8.886423412
1003,8.869001038
1004,8.87334734
1005,8.842693302
1006,8.855653865
1007,8.863277533
1008,8.828096286
1009,8.864475354
1010,8.883735377
1011,8.882363722
1012,8.888594368
1013,8.913433833
1014,8.925155404
1015,8.944270579
1016,8.979524162
1017,9.009361354
1018,9.042376753
1019,9.050063299
1020,9.029823495
1021,9.070870457
1022,9.079153865
1023,9.123684496
1024,9.115396534
1025,9.132425356
1026,9.144543872
1027,9.180483002
1028,9.146309851
1029,9.206582127
1030,9.20135159
1031,9.195937949
1032,9.198925923
1033,9.185055823
1034,9.195750173
1035,9.209245433
1036,9.211349737
1037,9.190297922
1038,9.164470827
1039,9.164982077
1040,9.152038824
1041,9.121483606
1042,9.107492405
1043,9.078154786
1044,9.097676488
1045,9.047260946
1046,9.022983456
1047,8.99563832
1048,8.980187976
1049,8.949121097
1050,8.924446963
1051,8.916380466
1052,8.876760215
1053,8.847112191
1054,8.83074434
1055,8.818349522
1056,8.787033269
1057,8.778061138
1058,8.73430332
1059,8.729104841
1060,8.684893165
1061,8.688216041
1062,8.665711314
1063,8.66709928
1064,8.655107398
1065,8.623860819
1066,8.639342399
1067,8.606524935
1068,8.608378044
1069,8.632753641
1070,8.59547946
1071,8.577104723
1072,8.577400618
1073,8.567388465
1074,8.616706766
1075,8.54883602
1076,8.593766342
1077,8.545528753
1078,8.61439301
1079,8.614596772
1080,8.623912216
1081,8.633390491
1082,8.599638071
1083,8.642051216
1084,8.647951744
1085,8.671404473
1086,8.668992819
1087,8.695492926
1088,8.684547956
1089,8.717709395
1090,8.70437613
1091,8.724960954
1092,8.708929441
1093,8.767208537
1094,8.759077938
1095,8.763645527
1096,8.760606129
1097,8.767904211
1098,8.831415305
1099,8.797698819
1100,8.810379655
1101,8.820199501
1102,8.845605508
1103,8.838209267
1104,8.870622238
1105,8.862737532
1106,8.869554359
1107,8.883142676
1108,8.87828715
1109,8.879559327
1110,8.891459279
1111,8.89766173
1112,8.887754329
1113,8.894327365
1114,8.902562779
1115,8.888181387
1116,8.897647257
1117,8.92408915
1118,8.865747214
1119,8.891581732
1120,8.886282143
1121,8.891020048
1122,8.866429931
1123,8.855945506
1124,8.875195834
1125,8.862337067
1126,8.875147487
1127,8.841422346
1128,8.848234833
1129,8.82639492
1130,8.818365251
1131,8.841929944
1132,8.790864745
1133,8.808031057
1134,8.771440215
1135,8.78533113
1136,8.780968006
1137,8.73029021
1138,8.750665421
1139,8.7149799
1140,8.703483722
1141,8.658436755
1142,8.654759611
1143,8.667518117
1144,8.654074107
1145,8.624794744
1146,8.655016364
1147,8.628248487
1148,8.614159434
1149,8.613767661
1150,8.595085114
1151,8.574919728
1152,8.556399631
1153,8.55417014
1154,8.574653071
1155,8.510792033
1156,8.520652454
1157,8.503713601
1158,8.514582735
1159,8.473547664
1160,8.497903913
1161,8.49354301
1162,8.481752719
1163,8.492590637
1164,8.487212742
1165,8.462543332
1166,8.441026403
1167,8.457294704
1168,8.457275501
1169,8.46520231
1170,8.423463336
1171,8.475113999
1172,8.43536158
1173,8.424597541
1174,8.451718851
1175,8.444796482
1176,8.423501356
1177,8.406296863
1178,8.421951067
1179,8.410498367
1180,8.396469044
1181,8.426968592
1182,8.439856593
1183,8.424132225
1184,8.42965491
1185,8.41764313
1186,8.415978034
1187,8.412109899
1188,8.385656822
1189,8.418729786
1190,8.424502251
1191,8.403580002
1192,8.403111019
1193,8.41291929
1194,8.393777856
1195,8.399274361
1196,8.399221066
1197,8.421570509
1198,8.41384243
1199,8.376283568
1200,8.417816752
1201,8.430283142
1202,8.394056715
1203,8.394027007
1204,8.41662812
1205,8.427178111
1206,8.397633837
1207,8.382567563
1208,8.403660476
1209,8.421667665
1210,8.391006039
1211,8.404955446
1212,8.417119358
1213,8.399515949
1214,8.421849962
1215,8.399751808
1216,8.390593542
1217,8.411763169
1218,8.389090636
1219,8.40889465
1220,8.420240356
1221,8.409517243
1222,8.37407154
1223,8.405817691
1224,8.408966849
1225,8.383854652
1226,8.401732983
1227,8.413042892
1228,8.372131843
1229,8.373837157
1230,8.405682441
1231,8.383344884
1232,8.411199565
1233,8.416779948
1234,8.389216143
1235,8.411512369
1236,8.395417971
1237,8.424759131
1238,8.397820096
1239,8.385938678
1240,8.41559196
1241,8.411315791
1242,8.390066719
1243,8.426028881
1244,8.412681185
1245,8.424938888
1246,8.366359115
1247,8.418105461
1248,8.390373452
1249,8.400850463
1250,8.387804217
1251,8.406411423
1252,8.397032061
1253,8.386586582
1254,8.397326879
1255,8.395637344
1256,8.377648488
1257,8.375275362
1258,8.398455281
1259,8.41586107
1260,8.412933161
1261,8.410738779
1262,8.396898665
1263,8.393330894
1264,8.406180347
1265,8.420294822
1266,8.385601218
1267,8.426165334
1268,8.368530224
1269,8.4097957
1270,8.42784545
1271,8.414864359
1272,8.381221999
1273,8.414054991
1274,8.396734193
1275,8.381467488
1276,8.399690498
1277,8.360740582
1278,8.393067857
1279,8.404923175
1280,8.401458104
1281,8.384876174
1282,8.388778392
1283,8.392734341
1284,8.392555005
1285,8.424214497
1286,8.403507142
1287,8.407230886
1288,8.432112403
1289,8.387287903
1290,8.382827884
1291,8.395301135
1292,8.406057704
1293,8.393229944
1294,8.400214374
1295,8.406495429
1296,8.406995834
1297,8.390255282
1298,8.398357565
1299,8.413107234
1300,8.408870535
1301,8.40656457
1302,8.395209545
1303,8.40987306
1304,8.35753322
1305,8.428703849
1306,8.406124321
1307,8.38351514
1308,8.38531272
1309,8.384144643
1310,8.396168494
1311,8.393447637
1312,8.389828303
1313,8.397841851
1314,8.401190653
1315,8.391763433
1316,8.394828841
1317,8.396471779
1318,8.416594539
1319,8.397516158
1320,8.395136927
1321,8.438904709
1322,8.424212146
1323,8.382403557
1324,8.410040414
1325,8.38322415
1326,8.407326564
1327,8.416856652
1328,8.392840777
1329,8.395464601
1330,8.426295238
1331,8.390917067
1332,8.433120895
1333,8.389894818
1334,8.399790004
1335,8.407293433
1336,8.421879646
1337,8.408600586
1338,8.419110561
1339,8.406660611
1340,8.394615195
1341,8.371620106
1342,8.378884276
1343,8.382246376
1344,8.386615691
1345,8.365770904
1346,8.397298706
1347,8.377828398
1348,8.395003198
1349,8.396553415
1350,8.415569378
1351,8.411993493
1352,8.398083674
1353,8.383989949
1354,8.401996507
1355,8.390784017
1356,8.409777406
1357,8.398174381
1358,8.403108535
1359,8.399244016
1360,8.399579032
1361,8.411149827
1362,8.374009051
1363,8.415603672
1364,8.387106976
1365,8.39896242
1366,8.391326795
1367,8.380833816
1368,8.417328273
1369,8.418054366
1370,8.418522822
1371,8.424378665
1372,8.368915036
1373,8.404523843
1374,8.404918286
1375,8.421996712
1376,8.380241961
1377,8.384771028
1378,8.427589128
1379,8.416073485
1380,8.40074619
1381,8.406613334
1382,8.410330268
1383,8.399451774
1384,8.396101334
1385,8.420109866
1386,8.39922415
1387,8.398866819
1388,8.388406834
1389,8.42605309
1390,8.388846395
1391,8.39827023
1392,8.391575948
1393,8.395616678
1394,8.407934881
1395,8.38865018
1396,8.390289109
1397,8.425148365
1398,8.391025462
1399,8.396894538
1400,8.398871407
1401,8.41057313
1402,8.391657038
1403,8.388510036
1404,8.391496092
1405,8.423220724
1406,8.390962103
1407,8.404580782
1408,8.398175515
1409,8.395374334
1410,8.403324584
1411,8.393264578
1412,8.397846762
1413,8.392447954
1414,8.398839113
1415,8.427396518
1416,8.42861831
1417,8.389605658
1418,8.423049712
1419,8.378895104
1420,8.402418531
1421,8.399871694
1422,8.407409523
1423,8.39699907
1424,8.402317579
1425,8.386629498
1426,8.386991448
1427,8.401702508
1428,8.39959761
1429,8.398761174
1430,8.404337417
1431,8.392174176
1432,8.403631232
1433,8.412665025
1434,8.400828414
1435,8.401612773
1436,8.406640006
1437,8.412249586
1438,8.401747394
1439,8.398580195
1440,8.403675465
1441,8.404962312
1442,8.41832943
1443,8.397627304
1444,8.397771908
1445,8.412083873
1446,8.406411802
1447,8.41899418
1448,8.401004176
1449,8.402238299
1450,8.373127083
1451,8.403444731
1452,8.395481663
1453,8.403465415
1454,8.403364052
1455,8.411088175
1456,8.412000686
1457,8.401311258
1458,8.38164718
1459,8.404118558
1460,8.415377165
1461,8.414739835
1462,8.410367081
1463,8.421200487
1464,8.404786918
1465,8.406278028
1466,8.403203083
1467,8.393330991
1468,8.413233948
1469,8.398799071
1470,8.371213674
1471,8.400286815
1472,8.41933025
1473,8.404850692
1474,8.408925478
1475,8.407422823
1476,8.399333733
1477,8.398481572
1478,8.400479169
1479,8.404699298
1480,8.423507014
1481,8.41150475
1482,8.399067514
1483,8.397116624
1484,8.41143807
1485,8.417826642
1486,8.424921874
1487,8.389136914
1488,8.403678293
1489,8.358662748
1490,8.396951896
1491,8.392048771
1492,8.378347751
1493,8.418064776
1494,8.361015283
1495,8.434732547
1496,8.392099549
1497,8.39897766
1498,8.400425972
1499,8.41405443
1500,8.427484762
1501,8.408490709
1502,8.42030224
1503,8.381389822
1504,8.408534617
1505,8.385341038
1506,8.400505642
1507,8.42123231
1508,8.418224805
1509,8.399141255
1510,8.408550421
1511,8.436947694
1512,8.41587603
1513,8.409104271
1514,8.374063229
1515,8.385272388
1516,8.388925857
1517,8.387025732
1518,8.397131688
1519,8.403479751
1520,8.425915966
1521,8.383261702
1522,8.39554225
1523,8.355086191
1524,8.40297077
1525,8.402401396
1526,8.376491365
1527,8.376542842
1528,8.410160464
1529,8.40257192
1530,8.415810282
1531,8.406245016
1532,8.420018141
1533,8.404691697
1534,8.415762851
1535,8.4185899
1536,8.384842886
1537,8.411724023
1538,8.365004685
1539,8.40720354
1540,8.37979533
1541,8.386661615
1542,8.375690772
1543,8.406055971
1544,8.429341127
1545,8.416158474
1546,8.382787706
1547,8.402155908
1548,8.402297556
1549,8.391307799
1550,8.40001251
1551,8.42290259
1552,8.378061814
1553,8.400956291
1554,8.38991212
1555,8.395657572
1556,8.407291531
1557,8.409272019
1558,8.402062805
1559,8.38577429
1560,8.429418
1561,8.401930584
1562,8.407125005
1563,8.425938166
1564,8.391372636
1565,8.399522559
1566,8.407111947
1567,8.394382136
1568,8.388442657
1569,8.416205551
1570,8.40456645
1571,8.38449103
1572,8.40332532
1573,8.382735365
1574,8.39983651
1575,8.385714012
1576,8.381527728
1577,8.388979624
1578,8.398489192
1579,8.394049288
1580,8.414862934
1581,8.381921019
1582,8.376161903
1583,8.399347288
1584,8.404113694
1585,8.393136204
1586,8.389095986
1587,8.41696044
1588,8.396709509
1589,8.385353087
1590,8.388364592
1591,8.385691662
1592,8.407176763
1593,8.376890069
1594,8.39649471
1595,8.408042665
1596,8.404736991
1597,8.366803378
1598,8.392771542
1599,8.40854374
1600,8.406609412
1601,8.394187879
1602,8.394201922
1603,8.379875686
1604,8.392876544
1605,8.423417005
1606,8.382607614
1607,8.395134211
1608,8.411592951
1609,8.408607425
1610,8.403055183
1611,8.412130171
1612,8.400137922
1613,8.412785789
1614,8.415658371
1615,8.406085994
1616,8.437877377
1617,8.395222743
1618,8.380210347
1619,8.412722641
1620,8.400859614
1621,8.417037682
1622,8.413391664
1623,8.394103027
1624,8.394258469
1625,8.408447627
1626,8.392947419
1627,8.388737625
1628,8.422473513
1629,8.418603475
1630,8.407462529
1631,8.382170505
1632,8.412618481
1633,8.404198412
1634,8.409315363
1635,8.404011467
1636,8.397610821
1637,8.408983695
1638,8.397878138
1639,8.38134175
1640,8.389035236
1641,8.398881162
1642,8.390990032
1643,8.38816031
1644,8.418021003
1645,8.415807614
1646,8.430002597
1647,8.403670079
1648,8.386404491
1649,8.395397526
1650,8.389438224
1651,8.40858041
1652,8.377793986
1653,8.392560143
1654,8.38339459
1655,8.403265471
1656,8.420412892
1657,8.386277261
1658,8.38046044
1659,8.390939403
1660,8.425116454
1661,8.412079066
1662,8.385183351
1663,8.390435104
1664,8.377552314
1665,8.41095685
1666,8.36985282
1667,8.415350888
1668,8.394292254
1669,8.38184583
1670,8.40076286
1671,8.430896724
1672,8.399821627
1673,8.43516692
1674,8.389856119
1675,8.398266365
1676,8.391478719
1677,8.429091263
1678,8.404250544
1679,8.401025968
1680,8.426927519
1681,8.391078143
1682,8.38102942
1683,8.401811165
1684,8.393221141
1685,8.40521738
1686,8.389395716
1687,8.37030623
1688,8.409864092
1689,8.428238086
1690,8.397766991
1691,8.397995692
1692,8.386792068
1693,8.385004861
1694,8.407836756
1695,8.382202223
1696,8.396195884
1697,8.388447211
1698,8.40648716
1699,8.394869599
1700,8.405437955
1701,8.400534941
1702,8.393664828
1703,8.393032689
1704,8.413501608
1705,8.423030601
1706,8.401641517
1707,8.37362447
1708,8.391788236
1709,8.390080777
1710,8.397110431
1711,8.411522548
1712,8.432213262
1713,8.418181655
1714,8.410736776
1715,8.40992691
1716,8.414272988
1717,8.407297239
1718,8.401027463
1719,8.365742729
1720,8.401303351
1721,8.408729913
1722,8.385084053
1723,8.403141724
1724,8.397915294
1725,8.39830139
1726,8.418433769
1727,8.416420554
1728,8.3909524
1729,8.41614763
1730,8.402611174
1731,8.384701867
1732,8.381840783
1733,8.411559629
1734,8.385199861
1735,8.397397444
1736,8.395233749
1737,8.393072616
1738,8.42271777
1739,8.418456213
1740,8.395611594
1741,8.3810092
1742,8.381351302
1743,8.398046481
1744,8.41073458
1745,8.418189874
1746,8.382570311
1747,8.379171553
1748,8.393385513
1749,8.416246849
1750,8.413577758
1751,8.437032372
1752,8.366494325
1753,8.384900794
1754,8.364846546
1755,8.386185485
1756,8.395061094
1757,8.392864963
1758,8.381806746
1759,8.388468141
1760,8.423996411
1761,8.405796361
1762,8.394397927
1763,8.391254613
1764,8.392325716
1765,8.397680058
1766,8.412022811
1767,8.389910665
1768,8.383548174
1769,8.382018682
1770,8.406427743
1771,8.407183498
1772,8.423155099
1773,8.434114246
1774,8.380185232
1775,8.394290791
1776,8.383526646
1777,8.385247857
1778,8.394389713
1779,8.389701457
1780,8.414646081
1781,8.432528309
1782,8.40556536
1783,8.380922944
1784,8.398276393
1785,8.399613773
1786,8.368972161
1787,8.406652721
1788,8.411657049
1789,8.395383877
1790,8.390877346
1791,8.406732541
1792,8.408653226
1793,8.390707693
1794,8.375117837
1795,8.377001601
1796,8.414719091
1797,8.389629113
1798,8.39237887
1799,8.432070394
1800,8.413903258
1801,8.416729287
1802,8.379504657
1803,8.391899211
1804,8.425381974
1805,8.396083009
1806,8.419747417
1807,8.405097876
1808,8.408996845
1809,8.408025105
1810,8.38186483
1811,8.413029968
1812,8.403522278
1813,8.401825032
1814,8.426742915
1815,8.387607889
1816,8.405937581
1817,8.386856983
1818,8.412734207
1819,8.396694395
1820,8.396536194
1821,8.374977087
1822,8.379544377
1823,8.435718815
1824,8.364910568
1825,8.387730446
1826,8.39848521
1827,8.406254795
1828,8.384994353
1829,8.394641422
1830,8.398073513
1831,8.400082507
1832,8.37380261
1833,8.393030398
1834,8.400911647
1835,8.391288364
1836,8.401071419
1837,8.424904982
1838,8.391165929
1839,8.372901813
1840,8.409734467
1841,8.41877991
1842,8.405015021
1843,8.384903037
1844,8.39768046
1845,8.404499704
1846,8.395278667
1847,8.399252247
1848,8.380274188
1849,8.406084828
1850,8.415479354
1851,8.399910032
1852,8.408122937
1853,8.390255735
1854,8.396675521
1855,8.405869664
1856,8.381455035
1857,8.40232548
1858,8.396723487
1859,8.414788199
1860,8.369306324
1861,8.383988507
1862,8.422140265
1863,8.38537365
1864,8.392704516
1865,8.383176178
1866,8.392530881
1867,8.408753262
1868,8.399804494
1869,8.398204893
1870,8.386957293
1871,8.39006118
1872,8.408047882
1873,8.397420624
1874,8.40720694
1875,8.385757108
1876,8.40154049
1877,8.396195212
1878,8.402955213
1879,8.382840668
1880,8.380372171
1881,8.410549173
1882,8.381023879
1883,8.402169326
1884,8.392213629
1885,8.393178996
1886,8.408201082
1887,8.416228406
1888,8.401729002
1889,8.397826974
1890,8.383692188
1891,8.400857685
1892,8.426495693
1893,8.405613256
1894,8.395443716
1895,8.416406848
1896,8.411417572
1897,8.389893174
1898,8.387584519
1899,8.385324324
1900,8.399979324
1901,8.372976231
1902,8.415286901
1903,8.416142277
1904,8.419608869
1905,8.388940624
1906,8.411904146
1907,8.399416247
1908,8.386529703
1909,8.401376817
1910,8.396667964
1911,8.4053957
1912,8.41939682
1913,8.393310934
1914,8.393150732
1915,8.397439565
1916,8.391920251
1917,8.400885717
1918,8.416852804
1919,8.394225657
1920,8.413181892
1921,8.398168874
1922,8.403193943
1923,8.395878713
1924,8.404314168
1925,8.370642027
1926,8.387273944
1927,8.386442274
1928,8.379672911
1929,8.411592861
1930,8.431280418
1931,8.404330598
1932,8.404772432
1933,8.405671664
1934,8.398772698
1935,8.382007158
1936,8.378976003
1937,8.424961907
1938,8.412109454
1939,8.407857641
1940,8.405476051
1941,8.389677646
1942,8.403193869
1943,8.366843158
1944,8.383727006
1945,8.374261129
1946,8.380449193
1947,8.384677794
1948,8.415924187
1949,8.428152779
1950,8.407100363
1951,8.409493772
1952,8.408771488
1953,8.414739987
1954,8.385787315
1955,8.398431364
1956,8.382539559
1957,8.422004205
1958,8.390918336
1959,8.417727035
1960,8.404249709
1961,8.373543639
1962,8.394580555
1963,8.408749889
1964,8.397920911
1965,8.37886474
1966,8.42532989
1967,8.379966941
1968,8.405632723
1969,8.390062342
1970,8.403785264
1971,8.401688182
1972,8.432352139
1973,8.424494097
1974,8.408433404
1975,8.406034504
1976,8.402779973
1977,8.395737698
1978,8.396833721
1979,8.367660543
1980,8.401634725
1981,8.40933024
1982,8.388588049
1983,8.398611919
1984,8.387603255
1985,8.400088248
1986,8.376695642
1987,8.390631835
1988,8.392875208
1989,8.407389107
1990,8.391797294
1991,8.399239133
1992,8.408415812
1993,8.400304605
1994,8.407833755
1995,8.417125736
1996,8.409808889
1997,8.405662201
1998,8.388152334
1999,8.434849965
2000,8.418699129
2001,8.387857815
2002,8.410135244
2003,8.387798131
2004,8.388042397
2005,8.390043849
2006,8.391656326
2007,8.399091937
2008,8.419996251
2009,8.402223774
2010,8.404614836
2011,8.399571458
2012,8.41530072
2013,8.405645314
2014,8.409039963
2015,8.388748297
2016,8.396419113
2017,8.371660288
2018,8.378655683
2019,8.375992156
2020,8.414482269
2021,8.413863669
2022,8.398463495
2023,8.4339452
2024,8.396261381
2025,8.376169118
2026,8.367188748
2027,8.424113666
2028,8.411763336
2029,8.417577143
2030,8.422741488
2031,8.383916819
2032,8.387994146
2033,8.404167345
2034,8.378225782
2035,8.383628946
2036,8.375362574
2037,8.402131353
2038,8.405284179
2039,8.3801686
2040,8.385795658
2041,8.415222258
2042,8.406349578
2043,8.389807591
2044,8.415038918
2045,8.396094967
2046,8.397570918
2047,8.379360189
2048,8.38459254
2049,8.374349487
2050,8.401124712
2051,8.384231402
2052,8.376436056
2053,8.392980269
2054,8.388503135
2055,8.381214554
2056,8.378837342
2057,8.416626995
2058,8.415741309
2059,8.386875967
2060,8.408687238
2061,8.385863209
2062,8.368956211
2063,8.37860898
2064,8.39561122
2065,8.379644708
2066,8.387946027
2067,8.387366055
2068,8.394242581
2069,8.384799736
2070,8.404284778
2071,8.395488528
2072,8.40249885
2073,8.389115097
2074,8.384934747
2075,8.408329296
2076,8.402668948
2077,8.388059717
2078,8.389514626
2079,8.429605037
2080,8.415016486
2081,8.402773702
2082,8.409864366
2083,8.410759417
2084,8.375113136
2085,8.378877498
2086,8.393405768
2087,8.386560798
2088,8.429698254
2089,8.400174321
2090,8.396455038
2091,8.420766803
2092,8.39051341
2093,8.422744205
2094,8.38873603
2095,8.40176021
2096,8.385090871
2097,8.386050378
2098,8.398005736
2099,8.377313958
2100,8.411930936
2101,8.399751851
2102,8.373401406
2103,8.412860939
2104,8.408677164
2105,8.403786786
2106,8.400115965
2107,8.421635159
2108,8.42302015
2109,8.38688092
2110,8.418814153
2111,8.421381557
2112,8.396771803
2113,8.388801359
2114,8.424705322
2115,8.383879024
2116,8.398880372
2117,8.421965251
2118,8.401257783
2119,8.395234886
2120,8.407986299
2121,8.405573124
2122,8.396589614
2123,8.411492445
2124,8.399867353
2125,8.398014742
2126,8.402962172
2127,8.399227306
2128,8.405128379
2129,8.414379345
2130,8.398082884
2131,8.392060597
2132,8.400600172
2133,8.418189452
2134,8.419587934
2135,8.38217353
2136,8.421823605
2137,8.393569829
2138,8.398153802
2139,8.39365559
2140,8.370085721
2141,8.38102239
2142,8.392039765
2143,8.383895442
2144,8.407496656
2145,8.395641266
2146,8.408719875
2147,8.409887028
2148,8.40305797
2149,8.405957141
2150,8.423804884
2151,8.384834303
2152,8.42465533
2153,8.406504916
2154,8.421907019
2155,8.409145503
2156,8.396807293
2157,8.383435541
2158,8.383563338
2159,8.391677041
2160,8.408267244
2161,8.369147195
2162,8.38825645
2163,8.395884042
2164,8.409040467
2165,8.423825099
2166,8.381157297
2167,8.389919734
2168,8.391641375
2169,8.373066354
2170,8.39062772
2171,8.395205954
2172,8.359218624
2173,8.409532649
2174,8.401205035
2175,8.390913309
2176,8.421609951
2177,8.409833743
2178,8.380710774
2179,8.394141386
2180,8.378742764
2181,8.422030895
2182,8.404067461
2183,8.395169834
2184,8.393223178
2185,8.392808564
2186,8.397210004
2187,8.408080697
2188,8.394255616
2189,8.375931797
2190,8.395910067
2191,8.393982888
2192,8.409579783
2193,8.409809389
2194,8.39160716
2195,8.383348279
2196,8.424019353
2197,8.393517659
2198,8.396993299
2199,8.409551834
2200,8.416523989
2201,8.39629282
2202,8.385457196
2203,8.364454088
2204,8.411408785
2205,8.420864188
2206,8.385247841
2207,8.380881095
2208,8.410727037
2209,8.381785719
2210,8.411075078
2211,8.412390179
2212,8.374249017
2213,8.405541385
2214,8.408187934
2215,8.383793399
2216,8.420841084
2217,8.399775162
2218,8.390226511
2219,8.399302231
2220,8.405976753
2221,8.39727778
2222,8.403567505
2223,8.411249477
2224,8.400073145
2225,8.406412655
2226,8.400614316
2227,8.386417752
2228,8.406212842
2229,8.400970681
2230,8.384841833
2231,8.426817194
2232,8.39304246
2233,8.372749554
2234,8.39803425
2235,8.413272467
2236,8.413999191
2237,8.444515748
2238,8.389263558
2239,8.410006778
2240,8.423598767
2241,8.429174708
2242,8.40129813
2243,8.391969071
2244,8.400270194
2245,8.405951286
2246,8.396397864
2247,8.419627576
2248,8.417502525
2249,8.389753912
2250,8.395591533
2251,8.426177413
2252,8.397185912
2253,8.406068372
2254,8.387747702
2255,8.439161841
2256,8.374777015
2257,8.401332091
2258,8.406859381
2259,8.409241344
2260,8.399138017
2261,8.370215207
2262,8.394400725
2263,8.379633034
2264,8.430849102
2265,8.398452254
2266,8.425645683
2267,8.389614442
2268,8.395007114
2269,8.398473359
2270,8.379712375
2271,8.419430702
2272,8.374242638
2273,8.409044866
2274,8.382322179
2275,8.401515085
2276,8.377540216
2277,8.419816134
2278,8.399814479
2279,8.412646682
2280,8.413211162
2281,8.381517637
2282,8.389686186
2283,8.420400336
2284,8.390387498
2285,8.399413663
2286,8.398973748
2287,8.428317316
2288,8.393151046
2289,8.403115756
2290,8.400863702
2291,8.415199107
2292,8.395924848
2293,8.415880408
2294,8.396280418
2295,8.392616585
2296,8.428742089
2297,8.371651411
2298,8.405462049
2299,8.375475251
2300,8.386802618
2301,8.400644791
2302,8.406868722
2303,8.395895892
2304,8.40782236
2305,8.396708003
2306,8.402317481
2307,8.396515049
2308,8.422217581
2309,8.414305955
2310,8.401651603
2311,8.384998014
2312,8.406147344
2313,8.406831763
2314,8.414185016
2315,8.388596789
2316,8.402578789
2317,8.390692464
2318,8.39459422
2319,8.387040489
2320,8.38627724
2321,8.402575086
2322,8.371454798
2323,8.394657114
2324,8.428708863
2325,8.390945863
2326,8.38363997
2327,8.408277085
2328,8.40347693
2329,8.376617351
2330,8.395927767
2331,8.414793448
2332,8.401773708
2333,8.403136283
2334,8.409789188
2335,8.382666933
2336,8.37513237
2337,8.414512778
2338,8.406813262
2339,8.397024311
2340,8.392155598
2341,8.399914555
2342,8.405815607
2343,8.415934821
2344,8.362586999
2345,8.415310738
2346,8.391727464
2347,8.410888555
2348,8.378709819
2349,8.392416931
2350,8.393221912
2351,8.391056489
2352,8.409718651
2353,8.422487393
2354,8.397648621
2355,8.419828262
2356,8.380685661
2357,8.409803996
2358,8.39796672
2359,8.416313221
2360,8.398946416
2361,8.41133328
2362,8.412606663
2363,8.380018473
2364,8.412945194
2365,8.376315365
2366,8.3945775
2367,8.392765621
2368,8.417676987
2369,8.399869528
2370,8.397190346
2371,8.385489528
2372,8.405340888
2373,8.378740242
2374,8.400228916
2375,8.406880205
2376,8.366081968
2377,8.38732661
2378,8.386831337
2379,8.366279125
2380,8.409949043
2381,8.405988131
2382,8.397361385
2383,8.390297342
2384,8.388343476
2385,8.391793175
2386,8.395145043
2387,8.377410736
2388,8.431364306
2389,8.399048041
2390,8.396548204
2391,8.383685859
2392,8.381650411
2393,8.417034794
2394,8.386604724
2395,8.390992148
2396,8.436566347
2397,8.390149093
2398,8.427691008
2399,8.382710882
2400,8.369449187
2401,8.393150265
2402,8.388881878
2403,8.430304678
2404,8.431920139
2405,8.388362194
2406,8.38442323
2407,8.405284567
2408,8.398682024
2409,8.40506453
2410,8.389157494
2411,8.405846059
2412,8.403708938
2413,8.391837587
2414,8.40372542
2415,8.434831258
2416,8.383818653
2417,8.405063451
2418,8.407499191
2419,8.3971851
2420,8.39145486
2421,8.397552499
2422,8.39045698
2423,8.399943189
2424,8.385867512
2425,8.395003089
2426,8.419100943
2427,8.396622302
2428,8.413809572
2429,8.368153261
2430,8.409686528
2431,8.394237164
2432,8.408575346
2433,8.394998311
2434,8.424887464
2435,8.38483107
2436,8.407883454
2437,8.386210568
2438,8.377772321
2439,8.401882874
2440,8.431749234
2441,8.413666923
2442,8.390936314
2443,8.388402736
2444,8.402997413
2445,8.414110803
2446,8.398033328
2447,8.402698386
2448,8.404387891
2449,8.408080163
2450,8.411367668
2451,8.414088174
2452,8.424748048
2453,8.370043845
2454,8.421304897
2455,8.394227252
2456,8.390821208
2457,8.401596897
2458,8.386186664
2459,8.4044385
2460,8.413133375
2461,8.428073737
2462,8.386711936
2463,8.410527369
2464,8.397872719
2465,8.40881285
2466,8.379017088
2467,8.391918062
2468,8.408617773
2469,8.375188782
2470,8.399436764
2471,8.405609955
2472,8.411618092
2473,8.410903221
2474,8.372972501
2475,8.372126153
2476,8.398875488
2477,8.371952991
2478,8.388484889
2479,8.389000226
2480,8.396507201
2481,8.411120816
2482,8.40325725
2483,8.427990117
2484,8.409501182
2485,8.381426654
2486,8.408209809
2487,8.412665174
2488,8.383929892
2489,8.42198796
2490,8.382317102
2491,8.385947764
2492,8.398110205
2493,8.417102542
2494,8.41305445
2495,8.396036349
2496,8.396780393
2497,8.411038312
2498,8.404697585
2499,8.395248775
2500,8.386794881
2501,8.388890342
2502,8.392863238
2503,8.386317204
2504,8.418604853
2505,8.404606314
2506,8.39825777
2507,8.391033801
2508,8.390507148
2509,8.425285821
2510,8.40260668
2511,8.39687372
2512,8.407022019
2513,8.410595803
2514,8.382825728
2515,8.416063928
2516,8.409820833
2517,8.37021082
2518,8.38141718
2519,8.402437186
2520,8.381720207
2521,8.416784833
2522,8.414066075
2523,8.429745265
2524,8.3905213
2525,8.386985294
2526,8.378873467
2527,8.411405398
2528,8.417151141
2529,8.394612872
2530,8.375311821
2531,8.40098354
2532,8.391065252
2533,8.389158444
2534,8.377742877
2535,8.411308973
2536,8.385218858
2537,8.427182682
2538,8.389992929
2539,8.380809586
2540,8.376987341
2541,8.402099101
2542,8.387897028
2543,8.387712657
2544,8.41881902
2545,8.409231559
2546,8.40425477
2547,8.390090146
2548,8.397273093
2549,8.399730089
2550,8.402131579
2551,8.396720526
2552,8.395887191
2553,8.404687683
2554,8.416046318
2555,8.408660072
2556,8.385723345
2557,8.383556837
2558,8.409310138
2559,8.419784831
2560,8.396957419
2561,8.410279004
2562,8.400094844
2563,8.399404629
2564,8.372138134
2565,8.42118353
2566,8.403650148
2567,8.40016032
2568,8.413439182
2569,8.390623918
2570,8.383428193
2571,8.407772214
2572,8.400636653
2573,8.41135889
2574,8.414764295
2575,8.404814288
2576,8.397959208
2577,8.380114918
2578,8.390629619
2579,8.40710147
2580,8.398206406
2581,8.385894798
2582,8.412017958
2583,8.395946545
2584,8.371640227
2585,8.422848266
2586,8.387050857
2587,8.384509364
2588,8.415096385
2589,8.424010755
2590,8.398683609
2591,8.40595949
2592,8.420395583
2593,8.385207707
2594,8.391559686
2595,8.388015411
2596,8.389749057
2597,8.409886466
2598,8.402161022
2599,8.412821814
2600,8.399179757
2601,8.397180548
2602,8.386140979
2603,8.433922588
2604,8.394404949
2605,8.408137855
2606,8.383473378
2607,8.412468018
2608,8.402713995
2609,8.399194782
2610,8.419418547
2611,8.391273785
2612,8.415616364
2613,8.409604642
2614,8.412083732
2615,8.41362033
2616,8.370732272
2617,8.398066645
2618,8.390301123
2619,8.403697116
2620,8.396437477
2621,8.380287834
2622,8.399517881
2623,8.398973916
2624,8.39897751
2625,8.382099962
2626,8.396716993
2627,8.408996139
2628,8.423874952
2629,8.415116214
2630,8.42832442
2631,8.383167529
2632,8.381946424
2633,8.398959784
2634,8.415115764
2635,8.417516656
2636,8.41357097
2637,8.404882645
2638,8.418179862
2639,8.405323396
2640,8.366828924
2641,8.391748331
2642,8.402175249
2643,8.4230887
2644,8.411536068
2645,8.388192012
2646,8.402471164
2647,8.3962761
2648,8.373406075
2649,8.405071696
2650,8.401713077
2651,8.384828448
2652,8.40165478
2653,8.408350698
2654,8.393109025
2655,8.408729697
2656,8.387315197
2657,8.418377741
2658,8.383883197
2659,8.428054811
2660,8.408260112
2661,8.412586955
2662,8.390185393
2663,8.395648315
2664,8.396748611
2665,8.367530274
2666,8.423947758
2667,8.403046522
2668,8.420128584
2669,8.429047438
2670,8.435279764
2671,8.379532392
2672,8.395492448
2673,8.40383331
2674,8.401661683
2675,8.407073241
2676,8.388360475
2677,8.398880359
2678,8.386170109
2679,8.388885427
2680,8.421975682
2681,8.406985656
2682,8.391160502
2683,8.381795282
2684,8.400747115
2685,8.405528493
2686,8.36024106
2687,8.380268041
2688,8.383699388
2689,8.415139449
2690,8.388505708
2691,8.400838377
2692,8.393074776
2693,8.38496432
2694,8.394168907
2695,8.382979717
2696,8.398031173
2697,8.394446539
2698,8.40991652
2699,8.388984606
2700,8.381928846
2701,8.405403341
2702,8.397349726
2703,8.393696594
2704,8.395736956
2705,8.404056299
2706,8.423228921
2707,8.400018864
2708,8.380463965
2709,8.399148602
2710,8.398929423
2711,8.399634142
2712,8.394186982
2713,8.400018546
2714,8.398418853
2715,8.419974395
2716,8.403897498
2717,8.434645613
2718,8.400807656
2719,8.383828059
2720,8.412546058
2721,8.399599571
2722,8.419692942
2723,8.403282077
2724,8.387391723
2725,8.424552951
2726,8.431115451
2727,8.403188839
2728,8.405143472
2729,8.423488155
2730,8.386693193
2731,8.397357517
2732,8.407097549
2733,8.405876505
2734,8.415847793
2735,8.401444109
2736,8.416027895
2737,8.391397912
2738,8.428828413
2739,8.390963843
2740,8.382984611
2741,8.399748286
2742,8.369997905
2743,8.409453456
2744,8.420875593
2745,8.411250509
2746,8.401003894
2747,8.396121034
2748,8.390066271
2749,8.42570585
2750,8.414029037
2751,8.394517166
2752,8.397442298
2753,8.388518437
2754,8.402023948
2755,8.382816205
2756,8.375390373
2757,8.377466481
2758,8.411220662
2759,8.408606701
2760,8.35901814
2761,8.392524854
2762,8.38791906
2763,8.387064279
2764,8.415916792
2765,8.419306624
2766,8.407757507
2767,8.40234669
2768,8.384968312
2769,8.388303861
2770,8.415315134
2771,8.385934364
2772,8.395649617
2773,8.411633361
2774,8.416411886
2775,8.417672185
2776,8.400533699
2777,8.451404984
2778,8.402947851
2779,8.413277443
2780,8.383145658
2781,8.395360122
2782,8.404484045
2783,8.394502914
2784,8.362801815
2785,8.408130517
2786,8.392853481
2787,8.392087245
2788,8.418958146
2789,8.394326365
2790,8.399775819
2791,8.383136768
2792,8.399526583
2793,8.394102712
2794,8.410694902
2795,8.399654395
2796,8.41525399
2797,8.398389627
2798,8.393411417
2799,8.395802597
2800,8.394216701
2801,8.407258642
2802,8.404824021
2803,8.374999994
2804,8.381749856
2805,8.390377007
2806,8.381382685
2807,8.39610042
2808,8.384737357
2809,8.416999435
2810,8.40160877
2811,8.413110572
2812,8.382062821
2813,8.392665437
2814,8.399858981
2815,8.432546569
2816,8.396900687
2817,8.416403457
2818,8.416962484
2819,8.388238566
2820,8.421044778
2821,8.385829222
2822,8.394196408
2823,8.403995954
2824,8.386457942
2825,8.388224256
2826,8.415669862
2827,8.389875799
2828,8.397204032
2829,8.395666712
2830,8.413793029
2831,8.396362859
2832,8.395094156
2833,8.394136261
2834,8.41897844
2835,8.378552649
2836,8.412522464
2837,8.389785183
2838,8.400180606
2839,8.418001266
2840,8.410914327
2841,8.400283006
2842,8.411972967
2843,8.434278305
2844,8.375406764
2845,8.402995649
2846,8.426540014
2847,8.407544912
2848,8.434487556
2849,8.405335685
2850,8.421383249
2851,8.392736244
2852,8.397851742
2853,8.399038273
2854,8.40719828
2855,8.389673223
2856,8.412687382
2857,8.397881457
2858,8.414500752
2859,8.39534484
2860,8.432119038
2861,8.401905384
2862,8.368975818
2863,8.378750709
2864,8.398458056
2865,8.40115491
2866,8.390406398
2867,8.380784423
2868,8.386310146
2869,8.378726562
2870,8.394398613
2871,8.391883735
2872,8.397939737
2873,8.427391576
2874,8.404218329
2875,8.381869217
2876,8.426642357
2877,8.423434765
2878,8.410823765
2879,8.411143271
2880,8.405291609
2881,8.4108051
2882,8.381178321
2883,8.389925684
2884,8.412132442
2885,8.400096349
2886,8.374555492
2887,8.400222629
2888,8.394841609
2889,8.413912994
2890,8.376633251
2891,8.401358295
2892,8.403736529
2893,8.388757481
2894,8.400704554
2895,8.401353888
2896,8.415145301
2897,8.404072722
2898,8.36265037
2899,8.401198426
2900,8.386558095
2901,8.383438265
2902,8.399103054
2903,8.411073388
2904,8.385934318
2905,8.432073822
2906,8.419421107
2907,8.422558593
2908,8.407807544
2909,8.393300361
2910,8.41771199
2911,8.389768074
2912,8.424725348
2913,8.399564775
2914,8.415098226
2915,8.407807643
2916,8.364006822
2917,8.413542358
2918,8.4318235
2919,8.423650719
2920,8.390166614
2921,8.394212618
2922,8.406304119
2923,8.415000073
2924,8.394745712
2925,8.413902106
2926,8.411024246
2927,8.402415145
2928,8.4106212
2929,8.369576899
2930,8.410384164
2931,8.402992132
2932,8.388915711
2933,8.404135421
2934,8.380226064
2935,8.39787696
2936,8.396991959
2937,8.397720515
2938,8.401079786
2939,8.39758409
2940,8.424535211
2941,8.408500534
2942,8.414738827
2943,8.377692727
2944,8.417871791
2945,8.389136019
2946,8.439922162
2947,8.428585055
2948,8.428942346
2949,8.399974239
2950,8.396435957
2951,8.418026692
2952,8.419228733
2953,8.422076425
2954,8.408233258
2955,8.395993683
2956,8.426167166
2957,8.399989999
2958,8.402348847
2959,8.413830701
2960,8.392559117
2961,8.394426573
2962,8.413793293
2963,8.409808888
2964,8.411543495
2965,8.399486309
2966,8.402444189
2967,8.395344447
2968,8.403528584
2969,8.402389182
2970,8.384063941
2971,8.416955739
2972,8.419328154
2973,8.388207048
2974,8.415544271
2975,8.396451848
2976,8.410335905
2977,8.398979914
2978,8.402676824
2979,8.405826729
2980,8.417234953
2981,8.408227395
2982,8.422187941
2983,8.395136751
2984,8.421439812
2985,8.433372488
2986,8.414560567
2987,8.404597578
2988,8.40463616
2989,8.410626138
2990,8.419362281
2991,8.429982848
2992,8.43392205
2993,8.405674202
2994,8.42427872
2995,8.422943857
2996,8.42081546
2997,8.407898014
2998,8.424920441
2999,8.410407973
3000,8.40973383
3001,8.408941729
3002,8.405186818
3003,8.391070715
3004,8.405754947
3005,8.402436778
3006,8.419016368
3007,8.410538061
3008,8.410219114
3009,8.413280384
3010,8.406561239
3011,8.431977337
3012,8.439912408
3013,8.414139764
3014,8.432393444
3015,8.423751938
3016,8.406334033
3017,8.419513738
3018,8.428534962
3019,8.407461665
3020,8.428092423
3021,8.436324666
3022,8.400679162
3023,8.435001336
3024,8.41623926
3025,8.41959286
3026,8.42463812
3027,8.40419255
3028,8.427251069
3029,8.438606994
3030,8.419278538
3031,8.424301026
3032,8.449922479
3033,8.422659479
3034,8.441588049
3035,8.443308112
3036,8.439951862
3037,8.448770389
3038,8.402595491
3039,8.437012366
3040,8.425593539
3041,8.424705127
3042,8.448016256
3043,8.433531478
3044,8.438154304
3045,8.469862489
3046,8.434491729
3047,8.445694087
3048,8.429377217
3049,8.450619407
3050,8.462019647
3051,8.427461064
3052,8.441763854
3053,8.415418476
3054,8.423861786
3055,8.441693791
3056,8.44204239
3057,8.437259625
3058,8.452058876
3059,8.4525908
3060,8.428406415
3061,8.449312294
3062,8.453674237
3063,8.454020589
3064,8.459031251
3065,8.466435582
3066,8.436712677
3067,8.454943644
3068,8.440373008
3069,8.430273966
3070,8.454268208
3071,8.443799988
3072,8.438431526
3073,8.457675236
3074,8.452361288
3075,8.456855597
3076,8.477638098
3077,8.466887163
3078,8.455682501
3079,8.472922983
3080,8.448913974
3081,8.459549755
3082,8.418649721
3083,8.452105768
3084,8.452170303
3085,8.481708858
3086,8.443971737
3087,8.470579837
3088,8.477670605
3089,8.477145497
3090,8.469931704
3091,8.473437272
3092,8.485782266
3093,8.487983911
3094,8.483617237
3095,8.474846575
3096,8.470443438
3097,8.482917559
3098,8.478200152
3099,8.455395709
3100,8.465961394
3101,8.524326034
3102,8.499312678
3103,8.486287756
3104,8.485726263
3105,8.486353088
3106,8.500385856
3107,8.479337494
3108,8.496082966
3109,8.476815734
3110,8.465646357
3111,8.509497989
3112,8.478092895
3113,8.511385445
3114,8.47978538
3115,8.516717362
3116,8.505949669
3117,8.518469813
3118,8.501837096
3119,8.49775193
3120,8.521385822
3121,8.515045557
3122,8.516392496
3123,8.53658362
3124,8.514702554
3125,8.493763283
3126,8.527893759
3127,8.503064793
3128,8.510238411
3129,8.500130607
3130,8.527380953
3131,8.511733449
3132,8.544528088
3133,8.491831469
3134,8.510889628
3135,8.518560217
3136,8.54041442
3137,8.530741503
3138,8.52295899
3139,8.536570835
3140,8.53146425
3141,8.521707633
3142,8.554770818
3143,8.526916391
3144,8.526345029
3145,8.552751992
3146,8.525880209
3147,8.539374619
3148,8.539626863
3149,8.543402152
3150,8.556687542
3151,8.567108011
3152,8.555644785
3153,8.586605831
3154,8.555187448
3155,8.561888515
3156,8.556606193
3157,8.5704253
3158,8.581904592
3159,8.560979894
3160,8.539934497
3161,8.56643531
3162,8.556454782
3163,8.580070843
3164,8.557163164
3165,8.563724318
3166,8.571501198
3167,8.57779418
3168,8.575958993
3169,8.574675707
3170,8.564952408
3171,8.590701535
3172,8.603692071
3173,8.581370018
3174,8.580362169
3175,8.598868239
3176,8.594087665
3177,8.61097422
3178,8.591632287
3179,8.575861431
3180,8.603433444
3181,8.594105351
3182,8.604690587
3183,8.635303322
3184,8.596698942
3185,8.606041031
3186,8.629170741
3187,8.614678149
3188,8.627813891
3189,8.623409083
3190,8.646782192
3191,8.628646695
3192,8.621019421
3193,8.660980255
3194,8.64604652
3195,8.665664897
3196,8.630704397
3197,8.667600248
3198,8.665307235
3199,8.659109849
3200,8.660550649
3201,8.656831825
3202,8.652516384
3203,8.693936917
3204,8.640476416
3205,8.636802295
3206,8.661223827
3207,8.658550807
3208,8.668926134
3209,8.66698451
3210,8.668876645
3211,8.648431105
3212,8.659642145
3213,8.690346088
3214,8.671166148
3215,8.723024503
3216,8.705490376
3217,8.708343312
3218,8.69065919
3219,8.697468804
3220,8.678143179
3221,8.686239303
3222,8.690532324
3223,8.685151362
3224,8.70810249
3225,8.702425686
3226,8.719456506
3227,8.703408315
3228,8.756964035
3229,8.735895503
3230,8.702947565
3231,8.721604695
3232,8.722333202
3233,8.733825605
3234,8.751166945
3235,8.777856772
3236,8.730994549
3237,8.769703929
3238,8.767468271
3239,8.759804985
3240,8.77935599
3241,8.754761309
3242,8.797996919
3243,8.757103378
3244,8.75330005
3245,8.771068994
3246,8.7808821
3247,8.752786537
3248,8.765612756
3249,8.754986791
3250,8.799111823
3251,8.762138244
3252,8.788915169
3253,8.829304958
3254,8.797586932
3255,8.773690709
3256,8.805269357
3257,8.78755581
3258,8.79235447
3259,8.830297958
3260,8.815980913
3261,8.808592788
3262,8.791712389
3263,8.816522046
3264,8.842928216
3265,8.862106427
3266,8.81860549
3267,8.853208132
3268,8.80689257
3269,8.82825212
3270,8.834247843
3271,8.841154718
3272,8.835046132
3273,8.850581891
3274,8.845322418
3275,8.862119809
3276,8.855036761
3277,8.858017592
3278,8.85557338
3279,8.876409202
3280,8.87887663
3281,8.848621627
3282,8.874934963
3283,8.898550418
3284,8.88919779
3285,8.876776584
3286,8.896622685
3287,8.883577288
3288,8.884276347
3289,8.887989826
3290,8.890589099
3291,8.904498281
3292,8.919966214
3293,8.905141192
3294,8.91594576
3295,8.879080907
3296,8.899445926
3297,8.898981937
3298,8.924446974
3299,8.892819148
3300,8.905992696
3301,8.905749463
3302,8.920781599
3303,8.927837009
3304,8.954433796
3305,8.93507819
3306,8.919770231
3307,8.947725474
3308,8.971417138
3309,8.942973618
3310,8.947120354
3311,8.954686683
3312,8.934650042
3313,8.946363407
3314,8.964009258
3315,8.952443677
3316,8.956143039
3317,8.972421102
3318,8.973786995
3319,8.969234326
3320,8.973187514
3321,8.967931017
3322,8.995284317
3323,8.984104111
3324,8.977393776
3325,8.973433683
3326,8.973744374
3327,9.016650505
3328,8.995874487
3329,8.975520398
3330,8.988970011
3331,8.975234098
3332,8.984508498
3333,9.029373112
3334,8.996936396
3335,8.990365255
3336,9.004907157
3337,9.000109794
3338,9.00138197
3339,9.050534109
3340,9.005396785
3341,9.030853902
3342,9.035232275
3343,9.014465755
3344,9.02434949
3345,9.017420869
3346,9.045170369
3347,9.026123266
3348,9.061706393
3349,9.03593857
3350,9.028295948
3351,9.036776647
3352,9.036373776
3353,9.06331145
3354,9.049879747
3355,9.05300348
3356,9.069802021
3357,9.061795487
3358,9.069111609
3359,9.062718152
3360,9.042551917
3361,9.065295314
3362,9.084640723
3363,9.072112464
3364,9.059203357
3365,9.056895813
3366,9.067553375
3367,9.054515948
3368,9.071411177
3369,9.043191557
3370,9.058930493
3371,9.065139502
3372,9.06371558
3373,9.067127607
3374,9.074612077
3375,9.072888591
3376,9.092755031
3377,9.072760649
3378,9.105274538
3379,9.061954772
3380,9.084351196
3381,9.090510377
3382,9.07093298
3383,9.064115538
3384,9.067962864
3385,9.076367736
3386,9.098155907
3387,9.104615974
3388,9.069166679
3389,9.100059338
3390,9.05739408
3391,9.072140478
3392,9.090349906
3393,9.077628769
3394,9.097239407
3395,9.096769763
3396,9.125743198
3397,9.098345811
3398,9.081795548
3399,9.100689452
3400,9.096666807
3401,9.118914009
3402,9.097265783
3403,9.058240503
3404,9.089315159
3405,9.081785903
3406,9.100638516
3407,9.100848697
3408,9.116760103
3409,9.099819775
3410,9.125498828
3411,9.083925055
3412,9.101051898
3413,9.114106224
3414,9.08486764
3415,9.103036882
3416,9.112868029
3417,9.07889158
3418,9.113860595
3419,9.101899731
3420,9.086867143
3421,9.085551011
3422,9.109621398
3423,9.088296192
3424,9.100606642
3425,9.109034632
3426,9.100397738
3427,9.0920167
3428,9.107142265
3429,9.094856451
3430,9.076991044
3431,9.109773837
3432,9.136674449
3433,9.076453596
3434,9.106181558
3435,9.119221831
3436,9.089120537
3437,9.105787836
3438,9.086715702
3439,9.100145994
3440,9.081826688
3441,9.069898445
3442,9.076821044
3443,9.074983214
3444,9.09597314
3445,9.100732695
3446,9.083595773
3447,9.114822038
3448,9.081873802
3449,9.080586084
3450,9.092122892
3451,9.076943365
3452,9.078242995
3453,9.093866335
3454,9.064660454
3455,9.089524685
3456,9.100628691
3457,9.096856048
3458,9.061823232
3459,9.056174286
3460,9.057695171
3461,9.067896513
3462,9.055190252
3463,9.09154561
3464,9.043228664
3465,9.033086643
3466,9.054092039
3467,9.065267087
3468,9.093297277
3469,9.040409426
3470,9.046412263
3471,9.050742287
3472,9.056905511
3473,9.062668082
3474,9.048031455
3475,9.030252122
3476,9.034217637
3477,9.048503153
3478,9.081708259
3479,9.039273639
3480,9.04273648
3481,9.02734326
3482,9.032053911
3483,9.003508829
3484,9.024461021
3485,9.031297204
3486,9.034059602
3487,9.020451901
3488,9.00802356
3489,9.037565878
3490,9.011696664
3491,9.004262809
3492,9.005181837
3493,9.010884274
3494,9.012587159
3495,8.995050437
3496,9.005809742
3497,9.002839213
3498,9.008026735
3499,8.98188055
3500,9.019256461
3501,8.969474467
3502,8.989021303
3503,9.023235939
3504,8.975482372
3505,8.976616227
3506,8.958557892
3507,8.962405267
3508,8.963649496
3509,8.967929413
3510,8.976204765
3511,8.963872742
3512,8.9779784
3513,8.959306761
3514,8.968111152
3515,8.962150938
3516,8.938545983
3517,8.950011507
3518,8.9601762
3519,8.958505413
3520,8.972463637
3521,8.961456676
3522,8.943425656
3523,8.944248362
3524,8.932468376
3525,8.917411396
3526,8.933157832
3527,8.917976153
3528,8.946518402
3529,8.912134148
3530,8.914776657
3531,8.930366964
3532,8.920690961
3533,8.890901417
3534,8.92491302
3535,8.922788037
3536,8.904262415
3537,8.924828155
3538,8.911878708
3539,8.906452634
3540,8.873843924
3541,8.891021061
3542,8.877317427
3543,8.890039057
3544,8.870204168
3545,8.886886259
3546,8.894321809
3547,8.879952303
3548,8.876282921
3549,8.870209358
3550,8.860195951
3551,8.849348259
3552,8.836318277
3553,8.840467813
3554,8.876321291
3555,8.857932722
3556,8.827978413
3557,8.863597667
3558,8.80942134
3559,8.830355702
3560,8.84095925
3561,8.829151411
3562,8.829545509
3563,8.86215539
3564,8.848895105
3565,8.831950598
3566,8.825148921
3567,8.816519061
3568,8.820540169
3569,8.803051496
3570,8.82044782
3571,8.809993631
3572,8.81004491
3573,8.795800693
3574,8.760186096
3575,8.769026381
3576,8.806198837
3577,8.777977129
3578,8.784366546
3579,8.784138688
3580,8.777900047
3581,8.758992279
3582,8.752994055
3583,8.784954016
3584,8.735327041
3585,8.794507619
3586,8.777222028
3587,8.760105365
3588,8.75866998
3589,8.774493602
3590,8.770487181
3591,8.76190034
3592,8.777705964
3593,8.724187857
3594,8.73105758
3595,8.745947572
3596,8.719248191
3597,8.727558189
3598,8.718991179
3599,8.705892653
3600,8.740841547
3601,8.735323881
3602,8.705372761
3603,8.704726208
3604,8.712495438
3605,8.716431655
3606,8.729575069
3607,8.703474452
3608,8.691001189
3609,8.717107413
3610,8.704174811
3611,8.706020607
3612,8.705121814
3613,8.699017652
3614,8.666058752
3615,8.704451927
3616,8.695904881
3617,8.651761437
3618,8.646235163
3619,8.662430206
3620,8.682188613
3621,8.68817159
3622,8.680230104
3623,8.644388736
3624,8.653952501
3625,8.656514016
3626,8.666771228
3627,8.662956395
3628,8.653518193
3629,8.65747279
3630,8.634125885
3631,8.656023042
3632,8.632996186
3633,8.638062027
3634,8.623756218
3635,8.625473493
3636,8.623216454
3637,8.62470283
3638,8.62785542
3639,8.625451037
3640,8.622924189
3641,8.621032367
3642,8.638166754
3643,8.579681843
3644,8.618141787
3645,8.606760076
3646,8.599234443
3647,8.611963678
3648,8.59716334
3649,8.591681577
3650,8.606243454
3651,8.612366571
3652,8.590512424
3653,8.596341628
3654,8.588532146
3655,8.604776261
3656,8.578579367
3657,8.599003103
3658,8.58401806
3659,8.589171359
3660,8.563514815
3661,8.583234085
3662,8.587219661
3663,8.587937592
3664,8.561088779
3665,8.577200045
3666,8.586136913
3667,8.560808901
3668,8.535737452
3669,8.551515646
3670,8.536548297
3671,8.546048042
3672,8.559669641
3673,8.568529899
3674,8.552994769
3675,8.57150882
3676,8.554776592
3677,8.540793508
3678,8.542891966
3679,8.545175783
3680,8.534396314
3681,8.545164226
3682,8.533919832
3683,8.568036327
3684,8.562414397
3685,8.524771838
3686,8.545467913
3687,8.546056666
3688,8.516323848
3689,8.555729615
3690,8.532140882
3691,8.559398468
3692,8.531594741
3693,8.513186482
3694,8.55029087
3695,8.523351048
3696,8.524372577
3697,8.50538706
3698,8.517564801
3699,8.484638908
3700,8.520815726
3701,8.496193688
3702,8.504211804
3703,8.509688998
3704,8.490875039
3705,8.475339458
3706,8.519601044
3707,8.500333803
3708,8.505266988
3709,8.523259742
3710,8.479699457
3711,8.502821524
3712,8.515248563
3713,8.477984124
3714,8.498542735
3715,8.471360643
3716,8.507532087
3717,8.506882836
3718,8.485122153
3719,8.4893354
3720,8.499978387
3721,8.488277095
3722,8.496416508
3723,8.475300217
3724,8.489402175
3725,8.490088474
3726,8.445921946
3727,8.462168872
3728,8.490607699
3729,8.463490106
3730,8.484535715
3731,8.482932593
3732,8.465519052
3733,8.505176142
3734,8.470316372
3735,8.504994207
3736,8.498354065
3737,8.478652958
3738,8.476579851
3739,8.461509474
3740,8.47220107
3741,8.450406288
3742,8.457123693
3743,8.479865924
3744,8.43087175
3745,8.460443263
3746,8.449640492
3747,8.456243184
3748,8.474696912
3749,8.438663365
3750,8.484407721
3751,8.473719373
3752,8.413704216
3753,8.438193069
3754,8.472330795
3755,8.445490838
3756,8.436875732
3757,8.449829344
3758,8.443298796
3759,8.463197776
3760,8.428244852
3761,8.443991754
3762,8.451302792
3763,8.455631322
3764,8.432951136
3765,8.46371992
3766,8.454797502
3767,8.459729051
3768,8.422926986
3769,8.4299882
3770,8.418790698
3771,8.418736929
3772,8.42811878
3773,8.441460959
3774,8.445288417
3775,8.437131027
3776,8.427835869
3777,8.445807883
3778,8.422199069
3779,8.427740576
3780,8.420019573
3781,8.453473048
3782,8.40621833
3783,8.406338978
3784,8.438104067
3785,8.425868204
3786,8.429729959
3787,8.410669721
3788,8.434281595
3789,8.420074933
3790,8.413587195
3791,8.437638117
3792,8.428353033
3793,8.432469237
3794,8.450680439
3795,8.451296413
3796,8.432183764
3797,8.410119002
3798,8.401796735
3799,8.435552919
3800,8.445517431
3801,8.395476295
3802,8.399234624
3803,8.426986345
3804,8.41663398
3805,8.417399629
3806,8.452778594
3807,8.405667573
3808,8.418676423
3809,8.415721979
3810,8.413574393
3811,8.405222138
3812,8.408496359
3813,8.423969354
3814,8.437733007
3815,8.41620037
3816,8.433019854
3817,8.395993378
3818,8.412082506
3819,8.403897166
3820,8.436056914
3821,8.410077317
3822,8.423210806
3823,8.411796703
3824,8.402541582
3825,8.428803414
3826,8.420706998
3827,8.419086487
3828,8.420670872
3829,8.41043254
3830,8.444699379
3831,8.417186403
3832,8.411564342
3833,8.425151694
3834,8.449133106
3835,8.389983297
3836,8.433016946
3837,8.409188969
3838,8.440152125
3839,8.382662475
3840,8.43007379
3841,8.418961286
3842,8.420218269
3843,8.395505303
3844,8.400637491
3845,8.405418166
3846,8.394062692
3847,8.396219817
3848,8.440492891
3849,8.399983566
3850,8.392190688
3851,8.430705439
3852,8.413057061
3853,8.412241676
3854,8.398471692
3855,8.396280536
3856,8.422984108
3857,8.41388391
3858,8.432092549
3859,8.407928621
3860,8.426738763
3861,8.419495174
3862,8.411063523
3863,8.423235469
3864,8.407918057
3865,8.402720807
3866,8.435724136
3867,8.392801289
3868,8.413516123
3869,8.392095102
3870,8.385266317
3871,8.414069411
3872,8.397301548
3873,8.408884403
3874,8.415872127
3875,8.426590727
3876,8.439527112
3877,8.403558305
3878,8.376071035
3879,8.431985647
3880,8.388051305
3881,8.401022278
3882,8.399294555
3883,8.38196849
3884,8.411300801
3885,8.406244208
3886,8.395200618
3887,8.420923698
3888,8.391044084
3889,8.415702847
3890,8.423161877
3891,8.395579724
3892,8.401544875
3893,8.400423391
3894,8.414494815
3895,8.381874818
3896,8.413851878
3897,8.395157011
3898,8.42565479
3899,8.426288137
3900,8.399535047
3901,8.408361722
3902,8.403603714
3903,8.382508597
3904,8.405537126
3905,8.415919561
3906,8.410814549
3907,8.405794441
3908,8.388580294
3909,8.405773214
3910,8.37509864
3911,8.424351828
3912,8.419144812
3913,8.432376577
3914,8.4032827
3915,8.440779688
3916,8.400442892
3917,8.394240314
3918,8.381248762
3919,8.423522954
3920,8.40667384
3921,8.408661306
3922,8.39763983
3923,8.385626536
3924,8.403088763
3925,8.428449484
3926,8.418847892
3927,8.373175352
3928,8.406543164
3929,8.378620666
3930,8.416071359
3931,8.408838044
3932,8.40567461
3933,8.412713375
3934,8.40873841
3935,8.369180477
3936,8.443925339
3937,8.387931886
3938,8.401210018
3939,8.427868597
3940,8.409255686
3941,8.385306273
3942,8.419157577
3943,8.380962252
3944,8.406473561
3945,8.414725305
3946,8.395908446
3947,8.421180752
3948,8.402517733
3949,8.410413161
3950,8.407051044
3951,8.421347224
3952,8.401502906
3953,8.386568001
3954,8.385269726
3955,8.403106126
3956,8.398548977
3957,8.388705934
3958,8.395206884
3959,8.391730728
3960,8.410825777
3961,8.380406135
3962,8.394077672
3963,8.422855353
3964,8.400119512
3965,8.397816505
3966,8.398579522
3967,8.392932388
3968,8.405386797
3969,8.382356551
3970,8.409517172
3971,8.3984524
3972,8.411454097
3973,8.411323077
3974,8.392902782
3975,8.417980786
3976,8.393152461
3977,8.399525999
3978,8.43645276
3979,8.411183188
3980,8.410539681
3981,8.391502422
3982,8.416263566
3983,8.392976006
3984,8.40476919
3985,8.383126952
3986,8.397588727
3987,8.406983198
3988,8.436565726
3989,8.399319156
3990,8.413622372
3991,8.406687495
3992,8.397913935
3993,8.419560253
3994,8.408516778
3995,8.396592433
3996,8.411719633
3997,8.415396971
3998,8.417388082
3999,8.4012516
4000,8.377654885
