Wavenumber (cm⁻¹),Intensity
200.0,680.9975406969511
201.00097751710655,703.3315702560463
202.0019550342131,734.8804195028447
203.00293255131965,780.4846218625618
204.0039100684262,844.2732752792383
205.00488758553274,918.0087954792573
206.0058651026393,990.5301598488038
207.00684261974584,1040.4005070369672
208.0078201368524,1044.6219826329552
209.00879765395894,989.9747771534726
210.00977517106548,882.2795115661105
211.01075268817203,753.3547451862673
212.01173020527858,632.1515339828038
213.01270772238513,532.3277473743601
214.01368523949168,455.101296707479
215.01466275659823,400.08942107252
216.01564027370478,360.99766657566767
217.01661779081132,330.51364892017926
218.01759530791787,305.6492355492012
219.01857282502445,288.64063735853
220.019550342131,275.7427769909788
221.02052785923755,265.8360156255531
222.0215053763441,259.122978954306
223.02248289345064,253.75145214191005
224.0234604105572,247.7504046382487
225.02443792766374,243.09900331177766
226.0254154447703,241.40966296154843
227.02639296187684,243.40181649929653
228.02737047898339,245.36999193804883
229.02834799608993,247.01225381190102
230.02932551319648,249.78678723661943
231.03030303030303,255.91330490719272
232.03128054740958,265.8718289067887
233.03225806451613,271.4926891335622
234.03323558162268,275.42802633491095
235.03421309872923,281.1241453722037
236.03519061583577,287.5316303392234
237.03616813294232,294.3089021864468
238.03714565004887,303.11402231470197
239.03812316715542,312.0944182488514
240.03910068426197,321.068811775624
241.04007820136852,337.7358887619189
242.04105571847506,358.93151711615985
243.0420332355816,381.38494459776865
244.0430107526882,406.965705678785
245.04398826979474,443.1755593919206
246.0449657869013,496.0797203377094
247.04594330400784,561.8444437452196
248.04692082111438,638.2519560544338
249.04789833822093,717.8254626218234
250.04887585532748,781.7457167472752
251.04985337243403,802.9051940489464
252.05083088954058,767.6658823802782
253.05180840664713,684.3243588453323
254.05278592375367,582.5955693023734
255.05376344086022,499.15576533317267
256.05474095796677,435.16271942744726
257.0557184750733,394.797797768074
258.05669599217987,373.40782624907126
259.0576735092864,361.8965429766481
260.05865102639297,360.4458043745563
261.0596285434995,367.5908797105195
262.06060606060606,378.9503463684763
263.0615835777126,393.7865157459939
264.06256109481916,420.52947504420337
265.0635386119257,454.00057489962785
266.06451612903226,493.2559260413113
267.0654936461388,536.5773505464556
268.06647116324535,580.2872241337441
269.0674486803519,613.0936712996235
270.06842619745845,638.1106259528453
271.069403714565,655.5184433722376
272.07038123167155,665.6484635894648
273.0713587487781,674.2788649668086
274.07233626588464,689.0942617996407
275.0733137829912,706.1798419467372
276.07429130009774,732.98032066386
277.0752688172043,776.3438923725267
278.07624633431084,828.0003027015222
279.0772238514174,891.912667468731
280.07820136852393,974.5698343292391
281.0791788856305,1080.75669461684
282.08015640273703,1213.8129048613494
283.0811339198436,1371.9502379701603
284.08211143695013,1577.6988284369231
285.0830889540567,1826.8514051488064
286.0840664711632,2107.795796285311
287.0850439882698,2401.6278940972406
288.0860215053764,2651.52607435456
289.0869990224829,2792.382071799559
290.0879765395895,2772.0173800272587
291.088954056696,2574.2334781787813
292.0899315738026,2222.434079188008
293.0909090909091,1832.599899794438
294.09188660801567,1477.8472147309606
295.0928641251222,1186.2713257029793
296.09384164222877,962.6326193163941
297.0948191593353,799.0780598865554
298.09579667644186,674.0000663217459
299.0967741935484,580.8307203906289
300.09775171065496,513.8639969505139
301.0987292277615,461.10719673649896
302.09970674486806,422.35549941008276
303.1006842619746,393.20663112600107
304.10166177908116,371.69051724130463
305.1026392961877,356.5450401682883
306.10361681329425,346.64227491227956
307.1045943304008,340.79526668554365
308.10557184750735,336.6133978735657
309.1065493646139,336.2297545969359
310.10752688172045,339.01202158968493
311.108504398827,338.0899179026723
312.10948191593354,333.1450611073296
313.1104594330401,328.8513113751888
314.11143695014664,327.7075987435398
315.1124144672532,329.87461652316165
316.11339198435974,333.74322810490435
317.1143695014663,339.7063086830526
318.11534701857283,349.8127686385505
319.1163245356794,366.307116802041
320.11730205278593,391.9054877438572
321.1182795698925,432.07172423693004
322.119257086999,478.1672983766448
323.1202346041056,538.7876848401334
324.1212121212121,622.9901409848349
325.1221896383187,728.1707927910917
326.1231671554252,834.2016707497763
327.12414467253177,908.8487727567152
328.1251221896383,920.705966325539
329.12609970674487,859.0214788792457
330.1270772238514,739.314012742398
331.12805474095796,606.4729528292378
332.1290322580645,494.4743121954494
333.13000977517106,414.7028065192555
334.1309872922776,361.3168934303602
335.13196480938416,322.3105282967177
336.1329423264907,294.7277024431239
337.13391984359725,274.3751543684028
338.1348973607038,259.1422886924325
339.13587487781035,248.67728023545982
340.1368523949169,242.7549686728376
341.13782991202345,235.58280368548884
342.13880742913,232.61171354519158
343.13978494623655,232.3613457791071
344.1407624633431,231.87235863338606
345.14173998044964,231.5063514514233
346.1427174975562,234.31043515708592
347.14369501466274,234.39716612529142
348.1446725317693,230.3431319990562
349.14565004887584,224.01110454762366
350.1466275659824,219.65006820119234
351.14760508308893,210.90327131992018
352.1485826001955,203.9375490113334
353.14956011730203,200.66698061547694
354.1505376344086,197.54669124885984
355.1515151515151,193.2198540603045
356.1524926686217,191.20411256964127
357.1534701857282,188.6269722393253
358.1544477028348,185.95583395254923
359.1554252199413,184.89879317471642
360.15640273704787,184.12479571709227
361.1573802541544,180.50227201434024
362.15835777126097,180.84938755761235
363.1593352883675,180.6441208754142
364.16031280547406,177.11131906843696
365.1612903225806,179.89966515647262
366.16226783968716,175.8619037214387
367.1632453567937,172.90227136320956
368.16422287390026,173.60441378548506
369.1652003910068,175.03899837700934
370.16617790811335,172.8503933017268
371.1671554252199,174.23581957668085
372.16813294232645,175.13835083072738
373.169110459433,173.05851376859837
374.17008797653955,169.17997206338836
375.1710654936461,170.37577888818524
376.1720430107527,171.36701048197554
377.17302052785925,171.7118506494984
378.1739980449658,172.1135598862747
379.17497556207235,172.59401705031476
380.1759530791789,172.41452071077114
381.17693059628544,176.22548053360157
382.177908113392,176.91039008251934
383.17888563049854,175.7141812741908
384.1798631476051,177.08001912567678
385.18084066471164,180.46579602798764
386.1818181818182,184.4026522392562
387.18279569892474,189.76387298445636
388.1837732160313,194.62838159929987
389.18475073313783,198.35221421311084
390.1857282502444,204.2170724229872
391.18670576735093,212.6408636526252
392.1876832844575,220.48657799692324
393.188660801564,231.09525379732227
394.1896383186706,246.39946629849098
395.1906158357771,263.36058378763244
396.1915933528837,284.56839730269337
397.1925708699902,299.7028104261802
398.19354838709677,307.05508845106425
399.1945259042033,306.09005138118647
400.19550342130987,296.13577085237387
401.1964809384164,286.0207540755529
402.19745845552296,285.75601512331093
403.1984359726295,292.2061645400499
404.19941348973606,304.54065333222604
405.2003910068426,322.8024423440704
406.20136852394916,338.8473510290079
407.2023460410557,344.32883035394394
408.20332355816225,330.01647418710144
409.20430107526886,302.5526106380692
410.2052785923754,275.9525028993381
411.20625610948196,258.9395432513298
412.2072336265885,251.28132932792604
413.20821114369505,253.66479747232478
414.2091886608016,262.93619425335146
415.21016617790815,272.4410019807447
416.2111436950147,272.8000308941024
417.21212121212125,258.7981649431457
418.2130987292278,232.0421349084906
419.21407624633434,207.48035440220218
420.2150537634409,194.81892480456202
421.21603128054744,185.38023153913014
422.217008797654,177.98650964505813
423.21798631476054,170.9937721185191
424.2189638318671,167.35973748260045
425.21994134897363,167.2586755634714
426.2209188660802,166.31550129149016
427.22189638318673,164.42205177170663
428.2228739002933,163.6520384295613
429.2238514173998,163.92724808587474
430.2248289345064,164.72887742549858
431.2258064516129,165.50636154191005
432.2267839687195,164.85918930285715
433.227761485826,162.26223595736144
434.22873900293257,164.45440228271855
435.2297165200391,166.91548291530384
436.23069403714567,165.70223289897592
437.2316715542522,169.00188007489237
438.23264907135876,170.57532213783256
439.2336265884653,171.2736983613967
440.23460410557186,173.35538373440744
441.2355816226784,175.71985756700005
442.23655913978496,176.0835147653746
443.2375366568915,179.30991147703628
444.23851417399806,183.6714325598137
445.2394916911046,187.27344695985286
446.24046920821115,190.31481459085705
447.2414467253177,193.78816382400151
448.24242424242425,197.53364378571027
449.2434017595308,203.4509085640109
450.24437927663735,210.9864749109147
451.2453567937439,220.44779191639387
452.24633431085044,231.83681849788408
453.247311827957,243.30385979953323
454.24828934506354,257.0705447768937
455.2492668621701,267.22879785268634
456.25024437927664,275.4192006365117
457.2512218963832,283.2304551601489
458.25219941348973,289.7836523932746
459.2531769305963,300.3148828779796
460.25415444770283,314.208409242028
461.2551319648094,331.3303790016312
462.2561094819159,350.3362051965341
463.2570869990225,369.87097096798476
464.258064516129,391.3567291473214
465.2590420332356,412.7872402991309
466.2600195503421,441.34863197877905
467.26099706744867,475.58909830596747
468.2619745845552,514.8054476229461
469.26295210166177,568.3652607527989
470.2639296187683,634.9463688626536
471.26490713587486,717.5974805859952
472.2658846529814,824.2719523488079
473.26686217008796,959.1069429694186
474.2678396871945,1119.1130428560457
475.26881720430106,1294.831844807551
476.2697947214076,1462.4530574456458
477.27077223851416,1570.4648931221584
478.2717497556207,1588.1535416955348
479.27272727272725,1503.155340498959
480.2737047898338,1322.342747452046
481.27468230694035,1116.3796185503681
482.2756598240469,929.8786253986002
483.27663734115345,785.7218717536525
484.27761485826,686.2391029413748
485.27859237536654,620.1586441980704
486.2795698924731,583.1095857036762
487.28054740957964,566.3237450201478
488.2815249266862,569.0752879419884
489.2825024437928,587.7609656850748
490.28347996089934,615.740269890041
491.2844574780059,649.0610053118596
492.28543499511244,685.2910175583662
493.286412512219,722.9929233395048
494.28739002932554,769.52441467188
495.2883675464321,829.7771954347895
496.28934506353863,907.1106149860242
497.2903225806452,1006.895203233836
498.29130009775173,1131.7843777490257
499.2922776148583,1292.4312196662058
500.2932551319648,1501.3427040519357
501.2942326490714,1768.2900842511883
502.2952101661779,2095.1957335991124
503.2961876832845,2456.76164681306
504.297165200391,2821.0973022772464
505.29814271749757,3097.512527134768
506.2991202346041,3206.657537343647
507.30009775171067,3098.6952529386813
508.3010752688172,2778.2937303954664
509.30205278592376,2322.6498535524743
510.3030303030303,1868.1660531952923
511.30400782013686,1486.1551696891383
512.3049853372434,1189.839938137235
513.3059628543499,969.4148778779365
514.3069403714564,807.8942278015032
515.307917888563,688.3488183587765
516.3088954056695,594.6237218524922
517.3098729227761,525.1085836583592
518.3108504398826,474.7210920971388
519.3118279569892,431.97198808706787
520.3128054740957,393.2629190384755
521.3137829912023,362.5736204554134
522.3147605083088,338.56423992020996
523.3157380254154,318.036430007912
524.3167155425219,300.4911303893476
525.3176930596285,287.60220031819523
526.318670576735,273.78182950986826
527.3196480938416,263.1236010728366
528.3206256109481,255.58142089980714
529.3216031280547,247.66489830408366
530.3225806451612,237.39438606499868
531.3235581622678,229.92894490514135
532.3245356793743,223.64323156411095
533.3255131964809,217.86151474280757
534.3264907135874,213.17115892722953
535.327468230694,208.8643935313959
536.3284457478005,204.2994938860474
537.3294232649071,201.20015105670615
538.3304007820136,196.77135886524496
539.3313782991202,193.17018903550647
540.3323558162267,189.03414117903873
541.3333333333333,185.24095565926882
542.3343108504398,184.5673032474615
543.3352883675464,182.33081254194403
544.3362658846529,179.39960752029205
545.3372434017595,177.856636707004
546.338220918866,177.05054350387076
547.3391984359725,175.4562195941795
548.3401759530791,173.57376110728902
549.3411534701856,174.537885586418
550.3421309872922,171.13405204612565
551.3431085043987,170.19706093636032
552.3440860215054,170.5274797021543
553.345063538612,168.66308434328218
554.3460410557185,165.77216609718835
555.347018572825,166.3767368868037
556.3479960899316,166.45742660091227
557.3489736070381,164.41811598797037
558.3499511241447,163.6570213779404
559.3509286412512,165.70985927933756
560.3519061583578,165.73714599373108
561.3528836754643,167.3661224697545
562.3538611925709,166.62296102362373
563.3548387096774,166.11161448367693
564.355816226784,168.15158001215775
565.3567937438905,170.70614022653183
566.3577712609971,170.2479121703617
567.3587487781036,169.74881649524127
568.3597262952102,175.40977076883306
569.3607038123167,178.75960438106503
570.3616813294233,181.02772644495025
571.3626588465298,186.1041822277821
572.3636363636364,190.86558740359428
573.3646138807429,197.77823297178793
574.3655913978495,204.75910442597703
575.366568914956,210.40743477947478
576.3675464320626,217.23409969833028
577.3685239491691,222.91472655038655
578.3695014662757,219.89851448556257
579.3704789833822,214.12914054773805
580.3714565004888,205.53942865291006
581.3724340175953,196.8081508046724
582.3734115347019,187.18873847592076
583.3743890518084,176.88697492000514
584.375366568915,169.99157752556175
585.3763440860215,164.4230098678548
586.377321603128,160.73584635160645
587.3782991202346,156.70840569174092
588.3792766373411,154.84601835402904
589.3802541544477,154.42254770105052
590.3812316715542,150.31983238981954
591.3822091886608,147.17193553422672
592.3831867057673,146.4474129964559
593.3841642228739,146.7014034070151
594.3851417399804,145.5392761683884
595.386119257087,143.89920057669656
596.3870967741935,144.79399965406722
597.3880742913001,143.89393186129922
598.3890518084066,143.63578898051716
599.3900293255132,143.80918369079313
600.3910068426197,145.1533848535133
601.3919843597263,145.72856620424702
602.3929618768328,143.84073555540553
603.3939393939394,143.6264265901077
604.3949169110459,141.32659841930567
605.3958944281525,142.49044218317817
606.396871945259,143.97818838082733
607.3978494623656,144.60993908036744
608.3988269794721,146.0793059698277
609.3998044965787,149.11589418662206
610.4007820136852,147.9617949657971
611.4017595307918,147.22119325130055
612.4027370478983,148.64851662472523
613.4037145650049,150.27563121501464
614.4046920821114,150.45477151605968
615.405669599218,151.2645794703159
616.4066471163245,153.9732618436812
617.4076246334312,155.3043757196063
618.4086021505377,157.71187716464496
619.4095796676443,161.5525291781457
620.4105571847508,166.00728514737582
621.4115347018574,170.3299731721131
622.4125122189639,171.1763048939119
623.4134897360705,177.28808731393312
624.414467253177,185.7827337070045
625.4154447702836,192.75929863607905
626.4164222873901,199.46751709049107
627.4173998044967,209.44621041573836
628.4183773216032,220.699731512711
629.4193548387098,228.6691125338745
630.4203323558163,236.8213095572224
631.4213098729228,240.13809325724077
632.4222873900294,239.63711659856887
633.423264907136,237.0648880723647
634.4242424242425,230.74750495433415
635.425219941349,224.24948706118866
636.4261974584556,217.51080799009708
637.4271749755621,215.15772716968343
638.4281524926687,213.93284421601223
639.4291300097752,212.09268181968184
640.4301075268818,214.34214703213792
641.4310850439883,223.99615239315315
642.4320625610949,226.16541318774387
643.4330400782014,230.9090935005558
644.434017595308,235.04572691633211
645.4349951124145,236.5363972147858
646.4359726295211,234.52348752454154
647.4369501466276,226.92352426754584
648.4379276637342,215.17700981262024
649.4389051808407,203.8885823249041
650.4398826979473,188.98038887224104
651.4408602150538,177.13186544419176
652.4418377321604,170.14343641953747
653.4428152492669,163.30522201718847
654.4437927663735,155.70899630110807
655.44477028348,152.8245983931491
656.4457478005866,150.07388657760112
657.4467253176931,146.08591579832677
658.4477028347997,143.07280081745648
659.4486803519062,141.40464268008782
660.4496578690128,138.9677204788717
661.4506353861193,136.06252248636054
662.4516129032259,133.02828792898137
663.4525904203324,133.34062478041355
664.453567937439,134.02502420181094
665.4545454545455,133.12533823950824
666.455522971652,132.1843411871693
667.4565004887586,132.6888611947201
668.4574780058651,130.2808646060151
669.4584555229717,129.25812809610446
670.4594330400782,128.50251157529485
671.4604105571848,128.46895555463658
672.4613880742913,129.6332129919952
673.4623655913979,129.6094952296516
674.4633431085044,126.4114801293948
675.464320625611,127.61130631864145
676.4652981427175,128.76935436053532
677.4662756598241,128.26220042172528
678.4672531769306,127.33243649159965
679.4682306940372,125.97999801505831
680.4692082111437,124.01782253684851
681.4701857282503,125.26243789532317
682.4711632453568,126.64494940820778
683.4721407624634,124.98929413842536
684.4731182795699,125.04115781738945
685.4740957966765,126.47283070626371
686.475073313783,126.1668206997611
687.4760508308896,124.77778451015566
688.4770283479961,123.97938362172317
689.4780058651027,123.5224362645464
690.4789833822092,122.68578433312386
691.4799608993158,122.2706863956459
692.4809384164223,121.79770074728052
693.4819159335289,121.37844262799834
694.4828934506354,123.30980153540325
695.483870967742,124.76719349820341
696.4848484848485,124.70815685605277
697.485826001955,122.5500252910151
698.4868035190616,121.16943646169223
699.4877810361681,121.63146034909991
700.4887585532747,122.45584823066567
701.4897360703812,121.91281213660177
702.4907135874878,122.1673918947388
703.4916911045943,120.94452365204121
704.4926686217009,121.94482731597648
705.4936461388074,121.68155117311177
706.494623655914,120.65050711827514
707.4956011730205,121.74366943345981
708.4965786901271,121.96906783907892
709.4975562072336,122.75751268063335
710.4985337243402,122.45645191990278
711.4995112414467,121.66739651352229
712.5004887585533,122.00892938727463
713.5014662756598,124.43579563694009
714.5024437927664,126.99682578656073
715.5034213098729,125.33636950915097
716.5043988269795,126.25265831652935
717.505376344086,128.32082469148187
718.5063538611926,129.5408613192973
719.5073313782991,129.14016584700002
720.5083088954057,129.1313072770177
721.5092864125122,129.65199816873192
722.5102639296188,128.35444361034112
723.5112414467253,127.37855547893167
724.5122189638319,127.3688228570102
725.5131964809384,127.16358190480187
726.514173998045,124.52982961968067
727.5151515151515,123.05357750336213
728.516129032258,124.57689994647079
729.5171065493646,125.10103710813898
730.5180840664711,122.47920339325339
731.5190615835777,124.11485927658856
732.5200391006842,125.29369648801482
733.5210166177908,127.56050567914738
734.5219941348973,128.0553979824948
735.5229716520039,126.78173920904041
736.5239491691104,127.30636041732804
737.524926686217,126.38953297906703
738.5259042033235,127.11156519852558
739.5268817204301,129.57959572278494
740.5278592375366,131.0251345566592
741.5288367546432,130.61140133885982
742.5298142717497,130.94593381209572
743.5307917888563,133.99086422025826
