Wavenumber (cm⁻¹),Intensity
200.0,463.0566355320472
201.00097751710655,454.13654154165863
202.0019550342131,451.9347832420396
203.00293255131965,447.6159909818421
204.0039100684262,444.21276710455214
205.00488758553274,440.802277276894
206.0058651026393,431.9561127565679
207.00684261974584,427.9948241241124
208.0078201368524,423.0322450811384
209.00879765395894,416.63765881325656
210.00977517106548,410.98397723845034
211.01075268817203,403.55697150838745
212.01173020527858,395.1927478713913
213.01270772238513,387.41870769091645
214.01368523949168,380.68161072280105
215.01466275659823,373.32685857055014
216.01564027370478,364.4173202625247
217.01661779081132,357.50569522068736
218.01759530791787,354.6919720301759
219.01857282502445,355.6585706310754
220.019550342131,356.88272006635196
221.02052785923755,354.0065094884245
222.0215053763441,348.94347292602026
223.02248289345064,344.7877458714653
224.0234604105572,341.4432485106399
225.02443792766374,337.07110944468883
226.0254154447703,332.7257608651097
227.02639296187684,330.33477014290486
228.02737047898339,330.640744915806
229.02834799608993,327.65008324808946
230.02932551319648,327.7376532770546
231.03030303030303,330.1269776413796
232.03128054740958,333.2502852123272
233.03225806451613,337.8761797077302
234.03323558162268,341.58032222201945
235.03421309872923,344.57361706641075
236.03519061583577,347.6026415940524
237.03616813294232,351.8944005515337
238.03714565004887,359.2942187364406
239.03812316715542,364.7667248878167
240.03910068426197,371.1132384641728
241.04007820136852,378.56706992718597
242.04105571847506,382.821833366424
243.0420332355816,389.2410278567638
244.0430107526882,392.7618193588535
245.04398826979474,396.4870846463512
246.0449657869013,402.8425107957752
247.04594330400784,403.18620571420695
248.04692082111438,404.2835305768203
249.04789833822093,405.01174811638884
250.04887585532748,404.9983375788923
251.04985337243403,406.4095471445491
252.05083088954058,407.73608509778114
253.05180840664713,409.55871294525843
254.05278592375367,411.1141359904523
255.05376344086022,411.0514685932736
256.05474095796677,407.5843071707297
257.0557184750733,404.59681348000356
258.05669599217987,399.95154822658276
259.0576735092864,394.22833943264675
260.05865102639297,390.3427023666012
261.0596285434995,383.53811491135247
262.06060606060606,380.20296394435957
263.0615835777126,377.6128662309508
264.06256109481916,373.1924508673386
265.0635386119257,370.87601212212456
266.06451612903226,372.94263018380605
267.0654936461388,371.98334252296735
268.06647116324535,370.7416731657868
269.0674486803519,372.6796240745979
270.06842619745845,371.95196399464464
271.069403714565,372.12914067120005
272.07038123167155,372.0916187071956
273.0713587487781,370.5291625624328
274.07233626588464,367.5984361308248
275.0733137829912,365.1192261223958
276.07429130009774,364.63112716392726
277.0752688172043,364.7655098507203
278.07624633431084,363.96237781176075
279.0772238514174,361.8191570944592
280.07820136852393,361.186986027568
281.0791788856305,358.87555642250646
282.08015640273703,356.21950124098646
283.0811339198436,355.14980777676607
284.08211143695013,349.1783867262059
285.0830889540567,345.8454250572854
286.0840664711632,339.19206598325644
287.0850439882698,329.23219493467315
288.0860215053764,322.9265515738711
289.0869990224829,315.5228548751051
290.0879765395895,307.61804782029463
291.088954056696,298.54033517277264
292.0899315738026,288.34648345323626
293.0909090909091,279.2044522227665
294.09188660801567,273.7663857408011
295.0928641251222,267.4195772018922
296.09384164222877,261.06073262223117
297.0948191593353,256.93553085784873
298.09579667644186,253.80890328916962
299.0967741935484,251.25280415836016
300.09775171065496,250.13096263723207
301.0987292277615,248.46395607008512
302.09970674486806,244.33434092399074
303.1006842619746,241.97476489570002
304.10166177908116,242.1369263460427
305.1026392961877,241.39018261773074
306.10361681329425,239.293371232367
307.1045943304008,238.59795796832563
308.10557184750735,236.86130012074497
309.1065493646139,233.32116300577283
310.10752688172045,230.48976043809225
311.108504398827,229.41719951513448
312.10948191593354,227.99496853037672
313.1104594330401,226.45383162593276
314.11143695014664,225.4594860406664
315.1124144672532,225.15336269757412
316.11339198435974,225.9794925884292
317.1143695014663,229.0575575008775
318.11534701857283,229.8229749553061
319.1163245356794,229.9361562722595
320.11730205278593,229.8688802059173
321.1182795698925,229.71051669153547
322.119257086999,231.6785766138864
323.1202346041056,229.1940674137646
324.1212121212121,226.89884293337857
325.1221896383187,224.89711832137084
326.1231671554252,220.33577654494235
327.12414467253177,217.80765590382006
328.1251221896383,214.26032052597395
329.12609970674487,211.84565329214018
330.1270772238514,210.673896753451
331.12805474095796,208.4474153508703
332.1290322580645,207.19024948110086
333.13000977517106,206.59740268757392
334.1309872922776,205.81876524191674
335.13196480938416,205.03939464841318
336.1329423264907,205.31456649632605
337.13391984359725,204.32763239026553
338.1348973607038,203.11112102057166
339.13587487781035,202.18762511955373
340.1368523949169,201.59071173322644
341.13782991202345,201.38385726735612
342.13880742913,201.75973869256427
343.13978494623655,199.85815233331775
344.1407624633431,198.36217935674873
345.14173998044964,198.8291829759749
346.1427174975562,198.46523394814335
347.14369501466274,197.0861937244862
348.1446725317693,196.05936231360315
349.14565004887584,196.15477821900518
350.1466275659824,196.6607837160371
351.14760508308893,195.7689662123777
352.1485826001955,196.5726192050892
353.14956011730203,197.11799457219485
354.1505376344086,197.52756647351526
355.1515151515151,198.49059780299885
356.1524926686217,199.3578483626436
357.1534701857282,199.9774340476244
358.1544477028348,200.68840860721855
359.1554252199413,202.21908432438477
360.15640273704787,204.9619665374056
361.1573802541544,207.64812464807054
362.15835777126097,209.02218142042298
363.1593352883675,210.0413501782382
364.16031280547406,211.96592218436632
365.1612903225806,215.0352273260131
366.16226783968716,217.45646434436904
367.1632453567937,219.44261346238335
368.16422287390026,219.6182139619493
369.1652003910068,218.76134918944757
370.16617790811335,218.15343662913338
371.1671554252199,217.08054148042447
372.16813294232645,215.47671331697794
373.169110459433,214.78290842232065
374.17008797653955,214.9065548093294
375.1710654936461,214.52142632346946
376.1720430107527,212.25059207633268
377.17302052785925,212.43459017665262
378.1739980449658,212.45873286330612
379.17497556207235,213.48815575308666
380.1759530791789,216.23211332799264
381.17693059628544,217.44877488648677
382.177908113392,218.3074069436765
383.17888563049854,219.24154231323007
384.1798631476051,219.9448832410348
385.18084066471164,220.8292628162103
386.1818181818182,224.95517459410533
387.18279569892474,224.57226009059826
388.1837732160313,225.43657191306036
389.18475073313783,227.36762762462124
390.1857282502444,228.39578035131817
391.18670576735093,230.2238793273482
392.1876832844575,233.78836410790765
393.188660801564,238.05700143389456
394.1896383186706,241.8599531833582
395.1906158357771,244.80086107851707
396.1915933528837,247.1687415163742
397.1925708699902,247.6166296536029
398.19354838709677,251.43829573594147
399.1945259042033,253.4716494694826
400.19550342130987,252.43566615461077
401.1964809384164,254.1965992803025
402.19745845552296,254.68012388162896
403.1984359726295,255.73182575113802
404.19941348973606,256.1438196705958
405.2003910068426,255.94378562934278
406.20136852394916,256.4169208474735
407.2023460410557,254.482700795596
408.20332355816225,248.95296835752197
409.20430107526886,244.38759799242996
410.2052785923754,242.65138280437532
411.20625610948196,241.9867871658147
412.2072336265885,239.98931880932687
413.20821114369505,236.85822666766802
414.2091886608016,236.11286922033636
415.21016617790815,236.2209602420211
416.2111436950147,235.54231398429243
417.21212121212125,236.88837220116548
418.2130987292278,240.46379877841812
419.21407624633434,244.41034079603392
420.2150537634409,248.8314664757457
421.21603128054744,254.2862272047008
422.217008797654,260.6144863411954
423.21798631476054,266.9560955084702
424.2189638318671,273.7982624329288
425.21994134897363,280.12317645893074
426.2209188660802,284.9763209240569
427.22189638318673,287.826615069072
428.2228739002933,287.45068372394473
429.2238514173998,287.91957926080164
430.2248289345064,284.40572701821986
431.2258064516129,278.0988755645662
432.2267839687195,275.7520571475843
433.227761485826,271.9282160950289
434.22873900293257,267.0120866968861
435.2297165200391,263.4604395099396
436.23069403714567,261.7891755195936
437.2316715542522,260.53389463600416
438.23264907135876,257.13811349930626
439.2336265884653,253.189563088289
440.23460410557186,249.10201841996252
441.2355816226784,245.73170369643807
442.23655913978496,242.9810410151947
443.2375366568915,238.87349026345512
444.23851417399806,235.22657466811359
445.2394916911046,232.8778673552263
446.24046920821115,231.29325943760222
447.2414467253177,229.3692617331149
448.24242424242425,227.39411562849563
449.2434017595308,227.92649508291257
450.24437927663735,227.87126473501095
451.2453567937439,228.4593611925101
452.24633431085044,230.9296123692108
453.247311827957,234.79545647045973
454.24828934506354,238.71530880325008
455.2492668621701,245.2118975827285
456.25024437927664,248.5448637296546
457.2512218963832,251.7046694821024
458.25219941348973,257.07363923249994
459.2531769305963,261.63316190023147
460.25415444770283,265.35944088187
461.2551319648094,268.6919746011006
462.2561094819159,271.52559388898715
463.2570869990225,274.01180495451734
464.258064516129,277.53794135602965
465.2590420332356,285.19133839207547
466.2600195503421,293.6052604763333
467.26099706744867,304.585460085002
468.2619745845552,315.23724744416376
469.26295210166177,324.2209858643444
470.2639296187683,335.59108446544656
471.26490713587486,347.0794829566991
472.2658846529814,358.65326114319777
473.26686217008796,368.5498795226895
474.2678396871945,377.35563856663777
475.26881720430106,387.95590329316366
476.2697947214076,403.91594292766
477.27077223851416,417.44464401327
478.2717497556207,434.5814065277901
479.27272727272725,454.8131228677559
480.2737047898338,475.38595903901165
481.27468230694035,500.3165304538443
482.2756598240469,526.0474098951853
483.27663734115345,552.6495192131272
484.27761485826,577.7241663237546
485.27859237536654,597.4590546671724
486.2795698924731,608.8974651444283
487.28054740957964,611.5521398402801
488.2815249266862,603.5658560295532
489.2825024437928,591.7685895795984
490.28347996089934,582.459647745374
491.2844574780059,579.3413596828636
492.28543499511244,583.035365214095
493.286412512219,587.6180686590498
494.28739002932554,599.3677337186833
495.2883675464321,618.8821712098312
496.28934506353863,642.9884775203509
497.2903225806452,669.5711723146717
498.29130009775173,701.349998748973
499.2922776148583,734.934902490611
500.2932551319648,767.6852761937785
501.2942326490714,797.6426452995664
502.2952101661779,816.39146873172
503.2961876832845,814.2060400748557
504.297165200391,801.4689957447483
505.29814271749757,774.5658009441213
506.2991202346041,736.6824767372211
507.30009775171067,691.6108677607702
508.3010752688172,643.5739352320591
509.30205278592376,601.220981940629
510.3030303030303,564.4203527923924
511.30400782013686,531.3253560998502
512.3049853372434,502.63653184966137
513.3059628543499,477.03615644661534
514.3069403714564,451.4049398545145
515.307917888563,426.1355348081865
516.3088954056695,396.06370900994614
517.3098729227761,371.51734850405035
518.3108504398826,351.4892680376237
519.3118279569892,332.59970666149377
520.3128054740957,316.9282960983668
521.3137829912023,303.6026372637146
522.3147605083088,292.87090088161125
523.3157380254154,286.120619122737
524.3167155425219,279.8943761952494
525.3176930596285,271.88142848571266
526.318670576735,266.2144128239258
527.3196480938416,259.4999351064466
528.3206256109481,255.41565755955696
529.3216031280547,251.57420218768388
530.3225806451612,247.787162426481
531.3235581622678,245.88589436618838
532.3245356793743,244.50441774744053
533.3255131964809,244.50790537932468
534.3264907135874,244.71012202992242
535.327468230694,247.865969895717
536.3284457478005,251.68039759525922
537.3294232649071,251.7760815498257
538.3304007820136,256.58228412622486
539.3313782991202,261.45498512203113
540.3323558162267,268.6258475492011
541.3333333333333,274.95692007190723
542.3343108504398,280.0101040103138
543.3352883675464,288.4437797295065
544.3362658846529,294.97038418992736
545.3372434017595,301.75927258158754
546.338220918866,310.00354951139286
547.3391984359725,318.62420888634347
548.3401759530791,327.8591457008401
549.3411534701856,339.1055895115509
550.3421309872922,346.8626804045318
551.3431085043987,355.7475343557413
552.3440860215054,365.79798879655124
553.345063538612,374.845419409837
554.3460410557185,380.0631545680829
555.347018572825,378.87687147091685
556.3479960899316,375.9806960684588
557.3489736070381,369.5954482138564
558.3499511241447,359.5723324571567
559.3509286412512,347.36779320188623
560.3519061583578,334.3438449996074
561.3528836754643,320.5488581690806
562.3538611925709,306.3866276962772
563.3548387096774,292.0665975363161
564.355816226784,278.654370528356
565.3567937438905,266.3281474016312
566.3577712609971,254.77550503126287
567.3587487781036,244.08457451592025
568.3597262952102,233.13067499012033
569.3607038123167,226.05793113687002
570.3616813294233,219.34772986493164
571.3626588465298,212.68594051793187
572.3636363636364,207.32271740679965
573.3646138807429,201.02765823394978
574.3655913978495,197.95234726432076
575.366568914956,194.6968841314971
576.3675464320626,191.7716848956376
577.3685239491691,189.75406868342176
578.3695014662757,188.12875581865995
579.3704789833822,186.39027109480702
580.3714565004888,184.21887961865684
581.3724340175953,184.97201605104982
582.3734115347019,184.3835479065704
583.3743890518084,183.19891783477019
584.375366568915,184.29774557827102
585.3763440860215,184.7691548851017
586.377321603128,185.55116056587312
587.3782991202346,186.65217970754782
588.3792766373411,188.73077450338948
589.3802541544477,189.92212345238283
590.3812316715542,190.13070001770117
591.3822091886608,192.8232897644774
592.3831867057673,191.36390072768475
593.3841642228739,193.50510391596896
594.3851417399804,193.94255806895657
595.386119257087,191.80820945113672
596.3870967741935,190.03137470140717
597.3880742913001,189.39264038273018
598.3890518084066,187.12464826927166
599.3900293255132,186.34935538939186
600.3910068426197,184.6463451906707
601.3919843597263,181.08643262859243
602.3929618768328,177.42771703963786
603.3939393939394,175.50383122450393
604.3949169110459,173.90995320639195
605.3958944281525,169.8026662510242
606.396871945259,166.38843945531556
607.3978494623656,165.25119111236015
608.3988269794721,165.3508414141211
609.3998044965787,164.19505678437818
610.4007820136852,161.6051806323264
611.4017595307918,161.57868022507833
612.4027370478983,161.56410281659535
613.4037145650049,161.83016977732436
614.4046920821114,162.06645299195057
615.405669599218,161.8337814494945
616.4066471163245,162.55104884702249
617.4076246334312,162.7895880186939
618.4086021505377,165.14626386677577
619.4095796676443,166.33014250952425
620.4105571847508,166.21151101443405
621.4115347018574,166.45631630430006
622.4125122189639,166.63889786639294
623.4134897360705,165.47959663459156
624.414467253177,163.99673793962654
625.4154447702836,162.95968265820568
626.4164222873901,160.4717464857131
627.4173998044967,157.49520115404192
628.4183773216032,156.44540092072324
629.4193548387098,154.55801771082147
630.4203323558163,153.8149992591876
631.4213098729228,152.40391143129295
632.4222873900294,150.86749087003878
633.423264907136,150.39500370852272
634.4242424242425,150.35086228558126
635.425219941349,148.6299000665327
636.4261974584556,147.8295012118698
637.4271749755621,149.1388543994252
638.4281524926687,148.18575839870033
639.4291300097752,147.42042952606548
640.4301075268818,148.3178072246645
641.4310850439883,147.86180087879228
642.4320625610949,146.98967304120958
643.4330400782014,147.41884683653288
644.434017595308,146.75848024967422
645.4349951124145,145.48707704095975
646.4359726295211,144.8776218989988
647.4369501466276,145.5080253291671
648.4379276637342,147.32671394199738
649.4389051808407,146.43852823572664
650.4398826979473,148.61756548312292
651.4408602150538,148.61118067103365
652.4418377321604,147.1064431604521
653.4428152492669,147.07076409166643
654.4437927663735,147.67614039286823
655.44477028348,148.60834881585797
656.4457478005866,147.81281917673223
657.4467253176931,149.0269749051631
658.4477028347997,151.79766024043968
659.4486803519062,153.5846617382651
660.4496578690128,154.95214383889487
661.4506353861193,158.17741338340932
662.4516129032259,158.88076431740174
663.4525904203324,160.73728978238142
664.453567937439,163.910257363023
665.4545454545455,166.35333628255174
666.455522971652,168.5326374234347
667.4565004887586,172.70940844121097
668.4574780058651,175.88377232245784
669.4584555229717,179.3214802105403
670.4594330400782,183.26654230869192
671.4604105571848,186.32087640235994
672.4613880742913,189.9962027691046
673.4623655913979,194.99320738015285
674.4633431085044,198.9508786116581
675.464320625611,204.33806286418397
676.4652981427175,207.70216667315512
677.4662756598241,209.75411673902244
678.4672531769306,211.58320562557958
679.4682306940372,213.21163080413714
680.4692082111437,212.89965228226202
681.4701857282503,209.63545931734376
682.4711632453568,207.7000325778004
683.4721407624634,205.76364684533254
684.4731182795699,200.9103365660536
685.4740957966765,194.81452615998805
686.475073313783,189.27461798217854
687.4760508308896,184.6336187200405
688.4770283479961,183.1437621889449
689.4780058651027,177.83641466366907
690.4789833822092,173.77265959345263
691.4799608993158,169.71252436014797
692.4809384164223,165.62299909261833
693.4819159335289,163.78970474503265
694.4828934506354,163.73582759526124
695.483870967742,160.71486105747027
696.4848484848485,158.4463603031559
697.485826001955,156.47479855760966
698.4868035190616,155.05461246215688
699.4877810361681,154.2298345731705
700.4887585532747,153.3050151721159
701.4897360703812,152.013061689663
702.4907135874878,153.05768290261548
703.4916911045943,154.24692293355295
704.4926686217009,154.0214284550546
705.4936461388074,152.04754403983227
706.494623655914,151.50348401527367
707.4956011730205,152.43661079277427
708.4965786901271,151.99381754204225
709.4975562072336,152.1626934887547
710.4985337243402,152.1423668776814
711.4995112414467,151.54187577793306
712.5004887585533,152.0176598025339
713.5014662756598,152.14156815645785
714.5024437927664,151.5068489796088
715.5034213098729,152.10374016013768
716.5043988269795,153.43949503777287
717.505376344086,153.1169323963484
718.5063538611926,154.0816226286796
719.5073313782991,154.93194753220516
720.5083088954057,155.1451838415064
721.5092864125122,156.13522000487436
722.5102639296188,158.2727454524777
723.5112414467253,159.4662730240559
724.5122189638319,160.17350317071595
725.5131964809384,158.58141539090747
726.514173998045,161.25349309784932
727.5151515151515,164.1469283576273
728.516129032258,164.94514509304057
729.5171065493646,167.36096185339832
730.5180840664711,170.49028977270953
731.5190615835777,171.69132394399867
732.5200391006842,172.89835777904543
733.5210166177908,175.85732753049896
734.5219941348973,179.72593057755012
735.5229716520039,183.00208444675408
736.5239491691104,185.8272665264159
737.524926686217,189.2141239289739
738.5259042033235,193.37226774785486
739.5268817204301,194.10411528572348
740.5278592375366,196.28409406433602
741.5288367546432,198.5841659757946
742.5298142717497,199.27527193453292
743.5307917888563,199.44039925600418
