Raman Shift,Intensity 
400,-0.013771899
401,0.001907493
402,0.001146558
403,0.021231877
404,-0.008552844
405,0.002456425
406,0.011827165
407,-0.000275893
408,-0.008997804
409,0.016805039
410,-0.019535734
411,-0.006080486
412,-0.019720548
413,-0.009727445
414,0.00219545
415,0.000861354
416,-0.002314779
417,0.003132787
418,0.021585279
419,0.008291186
420,-0.000792924
421,-0.009955953
422,0.005535364
423,-0.003819768
424,-0.000453301
425,0.004750336
426,0.00989831
427,0.007419056
428,-0.001979422
429,0.003288808
430,0.002183303
431,0.008061776
432,0.014090565
433,0.006246404
434,-0.014095177
435,-0.027052755
436,0.004949827
437,-0.004012349
438,-0.007750366
439,0.00519422
440,-0.00119843
441,0.001071489
442,-0.002355343
443,-0.00293513
444,-0.004192201
445,-0.003491925
446,-0.00023849
447,0.009919558
448,-0.006003021
449,0.003239527
450,0.011063691
451,-0.012435275
452,0.006162616
453,-0.016695117
454,-0.005768745
455,0.006527723
456,0.020372823
457,-0.010791116
458,0.017679987
459,0.005021356
460,-0.001445624
461,0.003959921
462,0.007160603
463,0.008003062
464,0.023399358
465,0.010039443
466,0.005765019
467,0.000529733
468,-0.003055579
469,0.015507613
470,0.008491631
471,-0.0101692
472,-0.017689136
473,-0.004959741
474,0.001095013
475,-0.010471865
476,0.014315415
477,0.028195509
478,0.004261252
479,-0.006803742
480,0.008171226
481,-0.011340739
482,-0.009822041
483,0.008713732
484,0.018918659
485,-0.000829331
486,-0.009856931
487,-0.000962329
488,0.004988207
489,-0.017778588
490,-0.005546502
491,-0.007636404
492,-0.002201111
493,0.009147802
494,-0.000682555
495,0.005209312
496,-0.002722263
497,0.012282373
498,0.020535916
499,-0.010021433
500,-0.017747335
501,0.013523689
502,-0.006967355
503,-0.010363391
504,0.017160549
505,0.007954058
506,0.00078846
507,0.002047444
508,-0.015238826
509,0.004246769
510,0.003617567
511,0.004716913
512,-0.003815819
513,-0.006805077
514,0.008497697
515,0.007007313
516,0.008768849
517,-0.00315112
518,-0.014682439
519,-0.004640925
520,-0.001587261
521,-0.009153883
522,0.003614243
523,0.001336226
524,0.0139679
525,0.007136075
526,0.016946979
527,-0.005223604
528,-0.016142022
529,0.017784399
530,0.005337502
531,0.008835616
532,-0.006587019
533,-0.014361442
534,-0.014188519
535,0.000690237
536,-0.015831392
537,0.008056066
538,0.010647653
539,-0.020146856
540,-0.00120028
541,0.007673691
542,0.009926733
543,-0.008692302
544,0.015725272
545,-0.005406172
546,-0.00200103
547,-0.021940557
548,-0.00941975
549,0.000925209
550,-0.005380946
551,0.011765346
552,-0.016975933
553,0.001124924
554,-0.008803413
555,0.002682671
556,-0.015413855
557,-0.003939301
558,-0.000871644
559,-0.003325623
560,-0.017884767
561,0.009445545
562,-0.001904862
563,-0.010338229
564,0.004946884
565,0.010386546
566,-0.006320915
567,0.00189766
568,0.001305462
569,6.00E-05
570,0.012094234
571,0.009531822
572,-0.006184519
573,-0.021440518
574,-0.013094819
575,0.002986727
576,0.002481165
577,-0.015164283
578,-0.010333402
579,0.005830212
580,0.017173001
581,-0.004635393
582,0.006169029
583,-0.002345038
584,-0.016378499
585,-0.008224707
586,-0.004379448
587,0.004781095
588,-0.007146272
589,0.008740263
590,-0.00904998
591,-0.020461724
592,0.002192592
593,-0.018106449
594,0.011212889
595,0.002413275
596,0.008334012
597,-0.00967669
598,-0.009714427
599,-0.003299279
600,-0.011870411
601,0.003575977
602,-0.004831545
603,0.021065038
604,0.000305828
605,0.015983877
606,-0.000290692
607,-0.003283871
608,-0.000734438
609,-0.0022939
610,-0.007770305
611,-0.008536684
612,0.003413884
613,0.0251029
614,-0.002687856
615,-0.016288399
616,-0.003993651
617,0.000336501
618,0.005460994
619,-0.000734501
620,0.006461364
621,0.004507741
622,0.016481619
623,0.013251802
624,0.005573469
625,-0.000246267
626,-0.017016269
627,0.033413901
628,0.002424124
629,-0.009893012
630,0.011113202
631,0.002615752
632,0.024026837
633,-0.005644815
634,-0.012279504
635,0.011906147
636,0.006452604
637,-0.002784525
638,-0.006644733
639,-0.017631517
640,0.010884387
641,0.000526404
642,-0.00220446
643,-0.012667224
644,-0.001858101
645,-0.003838805
646,0.002633061
647,0.005901288
648,-0.001492637
649,0.004083104
650,-0.011986309
651,0.000614313
652,0.007682415
653,0.004424472
654,-0.008186777
655,0.007768905
656,-0.020569797
657,-0.018916471
658,-0.002282896
659,0.000570769
660,0.001598849
661,-0.005184395
662,-0.012245517
663,0.003350411
664,0.009048998
665,0.012257209
666,-0.007506413
667,0.00511613
668,0.009745178
669,0.00434039
670,0.010305844
671,0.000388199
672,0.017255578
673,0.002917497
674,-0.011105784
675,0.010885881
676,-0.001178924
677,-0.01583413
678,0.005975108
679,-0.011683591
680,-0.018443007
681,-0.003943695
682,-0.012347011
683,-0.004416479
684,0.003312313
685,0.00050227
686,0.004430046
687,-0.012222085
688,0.011011275
689,-0.004078596
690,0.016853759
691,-1.12E-05
692,0.003104975
693,0.01897265
694,-0.004162137
695,-0.006885303
696,0.0116304
697,-0.000285692
698,0.007179564
699,0.005564983
700,-0.010599242
701,-0.013720374
702,0.023061436
703,0.001356015
704,-0.016613887
705,-0.005588854
706,0.01494464
707,0.014049307
708,0.017876536
709,-0.00414059
710,-0.011025718
711,-0.01882688
712,0.005987427
713,-0.012394732
714,0.001308373
715,-0.002097774
716,0.0111738
717,0.003694931
718,-0.01321324
719,-0.014194885
720,0.015992368
721,-0.015659386
722,-0.005478619
723,-0.018083556
724,-0.004826932
725,0.011019221
726,0.007131163
727,-0.011693978
728,-0.008498622
729,0.005063173
730,-0.000384038
731,-0.018067069
732,-0.010317725
733,0.011234007
734,-0.009915928
735,-0.006652746
736,-0.000558175
737,0.007931917
738,0.017859905
739,-0.007961073
740,-0.00810717
741,-0.010091128
742,-0.000802268
743,-0.004689314
744,-0.002031879
745,-0.003769902
746,0.001251089
747,-0.009465696
748,0.013899547
749,0.008150037
750,0.007551643
751,0.000342854
752,0.034070062
753,-9.55E-05
754,0.007593065
755,0.01527515
756,-0.011385395
757,-0.006250258
758,-0.010095599
759,0.019603649
760,-0.007535963
761,0.004714888
762,-0.013507721
763,0.002650214
764,-0.00341317
765,-0.002171417
766,-0.001574444
767,-0.002960383
768,-0.016078077
769,0.003063228
770,0.000998087
771,-0.00167819
772,-0.003822992
773,0.006363479
774,-0.000416721
775,-0.000160473
776,0.013105605
777,-0.007525435
778,-0.005267715
779,0.014724189
780,-0.010652259
781,-0.003698891
782,0.008289593
783,0.000634979
784,-0.008571276
785,0.013776557
786,0.023264621
787,0.002669022
788,0.012783097
789,-0.000153626
790,0.002789084
791,-0.010095865
792,-0.000459385
793,0.002232835
794,-0.01071979
795,0.008184737
796,-0.014094345
797,-0.003406921
798,0.005030774
799,0.000406435
800,-0.005171447
801,0.011675835
802,-0.007232568
803,-0.001920729
804,-0.00655987
805,-0.000794072
806,-0.022586609
807,-0.013378011
808,-0.002816903
809,0.010889987
810,0.018793786
811,0.006817096
812,0.006628427
813,-0.007692417
814,0.003237381
815,-0.003642226
816,0.021376133
817,0.011937033
818,-0.017850197
819,-0.01002818
820,-0.003336972
821,-0.006088665
822,-0.004417081
823,0.011458521
824,-0.005267429
825,0.00589302
826,-0.000283448
827,-0.022329573
828,-0.016354521
829,0.008286332
830,0.007134806
831,-0.005949239
832,0.000612959
833,-0.006640992
834,-0.00373979
835,-0.002993055
836,0.000545286
837,-0.028425524
838,-0.001886015
839,0.00966572
840,0.008890061
841,-0.007733847
842,-0.003052927
843,0.012356676
844,0.002446818
845,-0.00220846
846,-0.001475191
847,-0.002356612
848,-0.002995304
849,0.00437317
850,-0.003786613
851,-0.010437411
852,0.006573265
853,-0.006906915
854,-0.010001747
855,0.014927017
856,0.004842749
857,0.013185967
858,-0.013082036
859,-0.005209553
860,-0.012431044
861,0.001440507
862,0.007035486
863,0.001740028
864,0.006545297
865,0.007287732
866,-0.009841999
867,0.003274208
868,-0.009353985
869,0.000852231
870,-0.012409259
871,-0.001863203
872,-0.0172213
873,-0.013306619
874,-0.018373078
875,-0.002237662
876,-0.01019141
877,-0.011532142
878,0.000252089
879,0.0028221
880,0.011458677
881,-0.00758043
882,-0.012835348
883,-0.00269088
884,0.018281165
885,0.004224824
886,0.014282355
887,0.012969839
888,0.004261935
889,-0.007920976
890,-0.005284757
891,-2.04E-05
892,0.013101288
893,-0.011062406
894,0.002195393
895,-0.013988338
896,0.008782044
897,0.001643444
898,0.004733978
899,-0.020124627
900,-0.000385157
901,-0.003997626
902,0.002550964
903,0.002805253
904,-0.000567983
905,0.017153221
906,-0.007179314
907,0.016402352
908,0.006486405
909,0.014101828
910,0.028422198
911,-0.01085839
912,-0.001813635
913,-0.000766215
914,-0.015108947
915,0.014529319
916,-0.004025414
917,0.011996824
918,-0.007380764
919,0.011922117
920,0.001321028
921,-0.015151021
922,0.012699944
923,-0.000171995
924,0.007519295
925,0.00937166
926,0.019862869
927,-0.008334873
928,0.010706946
929,0.001344108
930,-0.002793806
931,0.008758311
932,0.019326043
933,-0.005961619
934,0.000397997
935,0.007173734
936,-0.016254133
937,-0.000722467
938,0.006898448
939,-0.012330739
940,0.012666753
941,-0.008865296
942,-0.001112043
943,-0.000564131
944,0.002882483
945,-0.000167923
946,0.006695091
947,0.020374743
948,-0.005234004
949,0.004118675
950,-0.004019639
951,-0.004831628
952,0.002324294
953,-0.00538676
954,-0.008711849
955,-0.002445422
956,0.008375543
957,-0.0057834
958,0.013952948
959,0.00634086
960,0.002544839
961,-0.001527889
962,0.000914145
963,0.003185525
964,-0.014970442
965,-0.014880524
966,0.001704406
967,-0.020130104
968,-0.002129042
969,-0.000801481
970,-0.018169136
971,0.000250453
972,0.009989344
973,0.003028586
974,0.000703409
975,-0.000321287
976,-0.013874711
977,-0.001862324
978,-0.014777523
979,0.008757928
980,0.002827472
981,0.005048029
982,-0.011854766
983,0.020642534
984,-0.011994145
985,-0.01119269
986,0.005663086
987,-0.002102558
988,-0.002326918
989,-0.004842996
990,0.01118267
991,-0.000372633
992,-0.014091408
993,-0.010835264
994,0.005549578
995,0.005429465
996,-0.00719715
997,0.005861425
998,0.010753506
999,-0.002964973
1000,-0.022193842
1001,-0.002691674
1002,0.004321736
1003,-0.000461336
1004,-0.005217408
1005,0.008528662
1006,0.005350413
1007,0.00279135
1008,0.017060029
1009,-0.009753925
1010,0.001242489
1011,-0.027202876
1012,0.003102922
1013,0.005447824
1014,-0.001006599
1015,0.022149243
1016,-0.003417386
1017,-0.005107753
1018,0.003522903
1019,-0.007326032
1020,0.016087222
1021,0.014899541
1022,-0.016159849
1023,0.006442904
1024,0.003604509
1025,-0.004520828
1026,-0.002413085
1027,-0.009475694
1028,-0.007988928
1029,-0.004532887
1030,-0.010279437
1031,0.015482162
1032,0.000452811
1033,0.002792101
1034,-0.007138144
1035,-0.007909725
1036,0.007445093
1037,-0.003164609
1038,-0.010726816
1039,-0.010805383
1040,-0.006356261
1041,-9.16E-05
1042,0.007173497
1043,-0.002437561
1044,-0.005622359
1045,-0.006698305
1046,-0.015594038
1047,0.017078851
1048,-0.002313165
1049,-0.000553202
1050,-0.005832853
1051,-0.016699804
1052,-0.010846955
1053,-0.0102687
1054,-0.007818739
1055,0.000389293
1056,-0.006069726
1057,-0.016127188
1058,0.008711485
1059,0.003268602
1060,0.020259042
1061,-0.003673732
1062,-0.00341385
1063,0.001561717
1064,0.011534257
1065,0.016027496
1066,-0.004225086
1067,0.013675665
1068,0.015090508
1069,0.02920035
1070,0.046478143
1071,0.060779588
1072,0.085703569
1073,0.121005479
1074,0.166626829
1075,0.174430937
1076,0.207136547
1077,0.265038067
1078,0.310977426
1079,0.394820987
1080,0.460775227
1081,0.539685143
1082,0.611300431
1083,0.690045087
1084,0.735240451
1085,0.835074001
1086,0.891193179
1087,0.917159445
1088,0.977215994
1089,0.974387917
1090,0.98055957
1091,0.990434254
1092,0.964246234
1093,0.92853605
1094,0.869782252
1095,0.829834929
1096,0.76132079
1097,0.701957331
1098,0.613785855
1099,0.527928273
1100,0.453118294
1101,0.39763655
1102,0.312353181
1103,0.280729853
1104,0.228509731
1105,0.177798208
1106,0.126117169
1107,0.094098666
1108,0.070115603
1109,0.069300314
1110,0.044538951
1111,0.037301552
1112,0.024198523
1113,0.018315303
1114,0.003155697
1115,0.008632424
1116,-0.024192351
1117,0.002568851
1118,-0.00541653
1119,0.006451428
1120,-0.006786373
1121,-0.00506716
1122,0.008992028
1123,-0.005452696
1124,0.002732412
1125,0.008731309
1126,-0.000414348
1127,0.0058286
1128,0.006825115
1129,-0.019909043
1130,0.021452436
1131,0.004758673
1132,0.008179349
1133,-0.003011602
1134,0.012069923
1135,0.000133219
1136,0.001457934
1137,0.008445207
1138,-0.002956098
1139,-0.005372877
1140,0.002611613
1141,-0.00717661
1142,0.018278397
1143,-0.014385587
1144,-0.000679214
1145,0.0102252
1146,-0.002978806
1147,0.005058242
1148,0.003754667
1149,0.005870507
1150,0.010058593
1151,-0.004642597
1152,-0.003699606
1153,0.023055955
1154,-0.00539019
1155,0.007683625
1156,0.011199618
1157,-0.017147436
1158,-0.001394344
1159,-0.014927947
1160,-0.009634989
1161,0.029475924
1162,-0.004052777
1163,-0.000354225
1164,-0.005104192
1165,0.031681153
1166,0.011446554
1167,0.017113232
1168,0.007236194
1169,0.00290806
1170,0.007215946
1171,0.015529806
1172,-0.000535954
1173,0.001739035
1174,-0.007781753
1175,-0.011837909
1176,0.002660419
1177,-0.009711866
1178,-0.002799675
1179,-0.000275081
1180,0.005835648
1181,-0.013890127
1182,0.007864793
1183,-0.017953622
1184,-0.002317872
1185,0.003150681
1186,-0.011956453
1187,0.024547973
1188,-0.006833541
1189,0.011126794
1190,-0.01167108
1191,-0.01440481
1192,0.018986255
1193,0.003709159
1194,-0.011408009
1195,0.000950478
1196,0.000209845
1197,-0.01860746
1198,0.01132712
1199,0.0346421
1200,0.00440053
1201,0.007068056
1202,-0.003568247
1203,-0.023140908
1204,0.002575021
1205,0.001782964
1206,-0.00849666
1207,-0.015851432
1208,-0.007734339
1209,-0.02944189
1210,0.007586294
1211,-0.002696552
1212,0.011281848
1213,0.001815483
1214,0.010355858
1215,0.011241795
1216,0.025920658
1217,-0.002255085
1218,-0.006324661
1219,0.00954578
1220,-0.007674653
1221,0.017633789
1222,-0.006778181
1223,0.008468837
1224,-0.007628007
1225,0.000895252
1226,-0.001724591
1227,0.011070734
1228,-0.001666064
1229,-0.003714517
1230,0.012423645
1231,-0.012223731
1232,-0.010869745
1233,0.019505079
1234,0.000345756
1235,0.00871757
1236,-0.006571531
1237,-0.009017954
1238,-0.008849323
1239,-0.007520872
1240,-0.013402527
1241,0.006906421
1242,0.011082961
1243,-0.011139581
1244,0.000854319
1245,0.005158794
1246,-0.002063209
1247,-0.002893014
1248,0.000645678
1249,0.014443203
1250,0.01122482
1251,-0.009493737
1252,-0.001054097
1253,-0.007661522
1254,-0.019671093
1255,0.002771586
1256,0.013896337
1257,-0.002792834
1258,-0.000916898
1259,-0.009763174
1260,-0.001077853
1261,-0.005969207
1262,0.008568041
1263,-0.001825024
1264,0.012885974
1265,0.004486264
1266,-0.002376537
1267,0.000614739
1268,-0.000690054
1269,0.009720343
1270,0.00067809
1271,0.001340521
1272,0.012475636
1273,-0.007665003
1274,0.008580537
1275,-0.01144611
1276,0.022556944
1277,-0.005235203
1278,0.019937768
1279,0.000448491
1280,-0.004120102
1281,0.002922897
1282,-0.006117071
1283,0.014765588
1284,-0.009559845
1285,0.007481294
1286,-0.00084659
1287,-0.011510362
1288,0.006174075
1289,-0.00717587
1290,-0.002431841
1291,0.005299285
1292,0.003859208
1293,0.003499378
1294,-0.007137578
1295,0.014886264
1296,0.010380046
1297,-0.01122775
1298,0.002214918
1299,-0.002279605
1300,0.009514973
1301,0.005345449
1302,-0.001011315
1303,0.004269445
1304,-0.003983421
1305,-0.001857204
1306,0.007447933
1307,-0.007176556
1308,0.000928831
1309,-0.015929234
1310,-0.011641801
1311,0.012984964
1312,-0.009734015
1313,-0.000337743
1314,-0.001787904
1315,-0.008804238
1316,-0.002492135
1317,-0.007195133
1318,0.004839789
1319,0.006902392
1320,0.01213793
1321,0.016362368
1322,-0.007076392
1323,-0.01638326
1324,0.00970737
1325,0.009496815
1326,-0.000669296
1327,0.001700409
1328,0.013515069
1329,-0.007596692
1330,0.004254366
1331,-0.001586024
1332,-0.003564073
1333,-0.001022335
1334,-0.004885452
1335,-0.006436077
1336,0.019343552
1337,0.000733775
1338,-0.001155193
1339,-0.005467459
1340,-0.002124776
1341,-0.005877972
1342,0.003488788
1343,0.01028745
1344,-0.007180952
1345,-0.005494189
1346,0.010453723
1347,-0.008022997
1348,0.020927473
1349,-0.00427584
1350,-0.014521724
1351,0.011427877
1352,0.009588382
1353,-0.003595947
1354,-0.000838564
1355,-0.001859185
1356,-0.000469924
1357,-0.007795855
1358,-0.00019022
1359,0.004936785
1360,-0.007289862
1361,-0.006962419
1362,-0.014710186
1363,0.001389235
1364,-0.011141342
1365,-0.011566516
1366,-0.003339009
1367,-0.023627656
1368,0.00065566
1369,-0.000698718
1370,0.014999096
1371,0.001835532
1372,0.00138028
1373,-0.008499246
1374,-0.012615968
1375,-0.000518415
1376,-0.003163444
1377,-0.006052514
1378,0.001003108
1379,-0.003275112
1380,-0.025098633
1381,0.004969311
1382,-0.010841166
1383,-0.000710849
1384,0.017325389
1385,-0.010566028
1386,-0.014678861
1387,0.011006222
1388,-0.004831456
1389,0.008916007
1390,-0.0006755
1391,0.002799695
1392,0.024023791
1393,-0.013034043
1394,-0.005880014
1395,0.01123059
1396,0.011387546
1397,0.008651604
1398,-0.008981015
1399,-0.00378296
1400,-0.007818879
1401,-0.016449891
1402,-0.003799799
1403,0.003225569
1404,-0.006825984
1405,-0.007433687
1406,-0.006435869
1407,-0.009827712
1408,-0.000730859
1409,-0.004238934
1410,0.006086063
1411,0.015156407
1412,0.028023416
1413,-0.007130183
1414,-0.024158809
1415,0.023979279
1416,-0.014745101
1417,-0.016658462
1418,0.013017975
1419,-0.006906934
1420,-0.004800853
1421,0.023279106
1422,0.004725922
1423,0.007929473
1424,0.009051914
1425,-0.004826569
1426,-0.011847062
1427,0.015821668
1428,0.017407082
1429,-0.009195501
1430,0.006152326
1431,-0.006968469
1432,-0.002049237
1433,0.005096071
1434,-0.001696991
1435,0.014159564
1436,0.004863242
1437,-0.004408008
1438,-0.008380477
1439,0.000693048
1440,0.004068506
1441,0.022274224
1442,0.018963643
1443,0.036002535
1444,0.02449264
1445,0.036315985
1446,0.039130663
1447,0.055643433
1448,0.066414094
1449,0.056878107
1450,0.067117599
1451,0.060953367
1452,0.100643655
1453,0.093260452
1454,0.126958238
1455,0.144807795
1456,0.144749161
1457,0.149894718
1458,0.159937641
1459,0.182758521
1460,0.17737511
1461,0.204198048
1462,0.186922078
1463,0.18596868
1464,0.21986305
1465,0.182981324
1466,0.191958429
1467,0.171741355
1468,0.183886212
1469,0.189796251
1470,0.153599878
1471,0.153403776
1472,0.155767155
1473,0.141497804
1474,0.121754136
1475,0.119512488
1476,0.074314752
1477,0.100802084
1478,0.082788421
1479,0.065565236
1480,0.046766644
1481,0.036711898
1482,0.059738252
1483,0.026639396
1484,0.038090855
1485,0.01187511
1486,0.038661669
1487,0.002295426
1488,0.018490914
1489,-0.000641472
1490,0.013516979
1491,-0.00554046
1492,0.024930738
1493,-0.018308235
1494,-0.007149484
1495,-0.004808351
1496,0.01770039
1497,-0.000358888
1498,0.009334321
1499,-0.003358994
1500,0.00278122
1501,0.007744835
1502,0.009892922
1503,0.004836314
1504,-0.02191938
1505,-0.001785275
1506,-0.00781115
1507,-0.008597863
1508,0.015782593
1509,0.002451058
1510,-0.023474938
1511,0.018135862
1512,0.01017314
1513,0.009131402
1514,0.005458264
1515,-0.016673945
1516,-0.02212594
1517,0.013613903
1518,-0.007220812
1519,0.004934353
1520,0.007487494
1521,0.006159845
1522,-0.0036492
1523,0.006801977
1524,-0.004375702
1525,0.004089633
1526,-0.023198241
1527,0.027477287
1528,0.015998874
1529,0.000370143
1530,0.009836336
1531,-0.005766582
1532,-0.015498336
1533,-0.000470326
1534,0.010540184
1535,0.007887908
1536,-0.014117285
1537,-0.001385859
1538,0.012438081
1539,-0.006518606
1540,-0.010510616
1541,0.017433323
1542,-0.015052757
1543,0.005321874
1544,-0.008127221
1545,-0.007564006
1546,-0.005302791
1547,-0.009912956
1548,-0.021136288
1549,0.00549272
1550,0.00289246
1551,0.000912038
1552,-0.0240535
1553,-0.012373694
1554,-0.013612765
1555,-0.01225078
1556,-0.004538835
1557,0.010020529
1558,0.006412733
1559,-0.011473195
1560,-0.008741219
1561,0.005
1562,0.001769466
1563,0.008008262
1564,0.004621247
1565,-0.002284039
1566,-0.008356164
1567,-0.000245096
1568,-0.002714078
1569,0.004941217
1570,-0.00658189
1571,-0.017261157
1572,0.00458871
1573,-0.016480506
1574,0.010747238
1575,-0.010632886
1576,-0.00392241
1577,-0.001272565
1578,0.008066438
1579,-0.016366935
1580,-0.010698157
1581,-0.008795706
1582,-0.003047559
1583,0.00017202
1584,0.000510082
1585,0.003818871
1586,0.007795566
1587,0.013758108
1588,-0.015141457
1589,0.003887734
1590,0.004973606
1591,0.009480268
1592,-9.52E-05
1593,0.005966147
1594,-0.01436363
1595,-0.005659633
1596,0.011667843
1597,0.019101053
1598,-0.009510438
1599,0.002713557
1600,0.013611525
1601,-0.007530444
1602,0.004633136
1603,0.016974992
1604,0.018768942
1605,-0.000166758
1606,-0.014934244
1607,0.00422897
1608,-0.002910959
1609,-0.004663161
1610,-0.009395285
1611,-0.004418502
1612,0.010443826
1613,-0.013162861
1614,0.014222447
1615,0.014998502
1616,0.014968109
1617,0.006040369
1618,0.01406487
1619,-0.010105126
1620,-0.002430159
1621,0.000437556
1622,0.000900556
1623,-0.021343372
1624,0.017849587
1625,0.000345983
1626,-0.002856386
1627,-0.013769077
1628,0.013509015
1629,0.001949261
1630,0.007345745
1631,-0.011259652
1632,0.002607768
1633,0.000112086
1634,-0.024812925
1635,-0.019802919
1636,-0.03642079
1637,-0.007376201
1638,-0.00185117
1639,0.003496165
1640,0.004184644
1641,-0.008169498
1642,0.010504151
1643,-0.001821366
1644,-0.004174776
1645,-0.007738824
1646,-0.002512422
1647,-0.003662113
1648,0.018796561
1649,0.006468316
1650,-0.001956384
1651,-0.000146923
1652,0.009490327
1653,0.010842923
1654,0.023449328
1655,0.011428486
1656,-0.00415606
1657,0.004818955
1658,-0.006111314
1659,-0.002924265
1660,0.010960659
1661,-0.015172382
1662,0.004609837
1663,0.002152231
1664,-0.006925189
1665,0.005789709
1666,0.002377033
1667,-0.015389494
1668,0.011082519
1669,-0.005276698
1670,0.005007068
1671,0.009520585
1672,0.016896863
1673,0.008977084
1674,-0.002719884
1675,-0.006848329
1676,-0.015779867
1677,-0.007576981
1678,0.020019099
1679,-0.010441052
1680,-0.008336915
1681,0.001620589
1682,-0.00194683
1683,-0.00971077
1684,0.009414669
1685,0.01924734
1686,0.000776478
1687,-0.002720035
1688,0.001841082
1689,0.005560431
1690,-0.008699946
1691,-0.005870479
1692,0.00763475
1693,0.009317089
1694,-0.002389758
1695,0.003165264
1696,-0.003528417
1697,0.018246028
1698,-0.00449825
1699,-0.006912015
1700,0.001100763
1701,-0.009379977
1702,0.001623828
1703,-0.003597881
1704,-0.001773057
1705,0.006848169
1706,0.000844696
1707,-0.022755469
1708,-0.012513688
1709,-0.005916229
1710,-0.011536088
1711,0.000163159
1712,-0.01399851
1713,0.008171351
1714,-0.009495778
1715,0.010538125
1716,-0.013410142
1717,-0.017410853
1718,-0.005439481
1719,0.001085105
1720,0.012170272
1721,-0.005774431
1722,0.004018152
1723,0.010502785
1724,0.010491747
1725,0.004018005
1726,0.012579357
1727,-0.0192925
1728,0.015445583
1729,-0.002124162
1730,0.005763579
1731,0.001596733
1732,0.010163321
1733,3.12E-05
1734,-0.020818577
1735,-0.00952313
1736,0.011754195
1737,0.002403887
1738,-0.010610522
1739,0.008655098
1740,-0.013822266
1741,0.007037296
1742,-0.01712165
1743,0.007097369
1744,0.020186287
1745,-6.78E-05
1746,-0.016976581
1747,-0.021143707
1748,0.001821469
1749,-0.022006319
1750,0.005008349
1751,0.001184995
1752,-0.004609811
1753,0.00670818
1754,0.008428259
1755,0.011353898
1756,0.013839522
1757,0.010343444
1758,0.010278092
1759,0.009154463
1760,0.02443821
1761,-0.00040092
1762,0.005708482
1763,0.030479053
1764,0.020399072
1765,0.019976492
1766,0.00268811
1767,-0.005844208
1768,0.018516645
1769,0.011311357
1770,0.024402218
1771,0.034853966
1772,0.037260907
1773,0.038816883
1774,0.034759548
1775,0.053838797
1776,0.050663636
1777,0.052580722
1778,0.066245084
1779,0.066413881
1780,0.08549139
1781,0.090202863
1782,0.081471368
1783,0.105312102
1784,0.096177267
1785,0.102571362
1786,0.103000343
1787,0.100251201
1788,0.106377763
1789,0.104168663
1790,0.085148969
1791,0.092982155
1792,0.099701163
1793,0.116749169
1794,0.065487749
1795,0.071675386
1796,0.072435881
1797,0.061224275
1798,0.065695418
1799,0.04503062
1800,0.041410008
1801,0.028039296
1802,0.036371831
1803,0.041481316
1804,0.046641413
1805,0.020721856
1806,0.02123642
1807,0.018423134
1808,0.00206429
1809,0.008746064
1810,0.004475616
1811,0.003338305
1812,-0.002520039
1813,-0.00367718
1814,0.009981079
1815,0.001466397
1816,0.015518864
1817,-0.00356104
1818,-0.02398199
1819,0.00390498
1820,0.001505729
1821,-0.004247945
1822,0.012195189
1823,-0.001579806
1824,-0.016627421
1825,0.00431585
1826,-0.000205804
1827,-0.00064098
1828,-0.007903909
1829,0.008720252
1830,-0.000580569
1831,0.000205772
1832,-0.000194893
1833,0.004478678
1834,0.003954743
1835,-0.012687048
1836,-0.014478009
1837,0.017343976
1838,-0.000146501
1839,0.000236214
1840,-0.009014373
1841,0.001144617
1842,0.013726405
1843,0.008174658
1844,-0.013514931
1845,-0.014195477
1846,-0.006486155
1847,0.003400104
1848,0.010724966
1849,-6.12E-06
1850,0.009901279
1851,0.003613541
1852,0.002484433
1853,0.000772127
1854,-0.008402118
1855,0.012662881
1856,-0.003110538
1857,0.003571251
1858,-0.016430589
1859,0.016609859
1860,-0.009971373
1861,0.008364355
1862,-0.010971686
1863,-0.011551603
1864,0.007711374
1865,-0.016536333
1866,-0.006280585
1867,0.002389568
1868,0.010226433
1869,-0.009816493
1870,-0.009844772
1871,0.005631684
1872,-0.001517644
1873,-0.015411333
1874,0.003404057
1875,-0.017419872
1876,-0.015176838
1877,-0.01212754
1878,-0.009393504
1879,-0.006984913
1880,-0.003482874
1881,-0.008954837
1882,0.020643101
1883,0.000451315
1884,-0.015011985
1885,-0.001786351
1886,0.004076053
1887,0.006754781
1888,0.003404606
1889,-0.005658443
1890,0.003171456
1891,-0.004246598
1892,-0.009745086
1893,0.013812673
1894,-0.008341929
1895,-0.008756551
1896,-0.006706907
1897,0.004372046
1898,-0.013689635
1899,0.001522758
1900,-0.014870221
1901,0.00591472
1902,-0.013054285
1903,0.013011758
1904,0.001015883
1905,-0.008203778
1906,0.002274451
1907,-0.007275479
1908,-0.016042256
1909,0.013306907
1910,0.002511647
1911,0.012928947
1912,-0.003857995
1913,-0.017953113
1914,0.008751368
1915,-0.004997422
1916,0.023861354
1917,0.001822999
1918,-0.008818729
1919,0.000810754
1920,-0.002430036
1921,-0.001575034
1922,-0.00448707
1923,-0.000529634
1924,0.00529808
1925,-0.023440922
1926,0.005555056
1927,-0.004163778
1928,-0.003180512
1929,0.023977642
1930,-0.011385836
1931,0.00705272
1932,0.002895566
1933,0.014338048
1934,-0.005296959
1935,0.015469717
1936,0.002994122
1937,0.003200421
1938,0.018030882
1939,0.000579367
1940,0.004608264
1941,-0.005934314
1942,0.004006403
1943,-0.00139575
1944,0.018341919
1945,0.000407315
1946,-0.0031345
1947,-0.004649159
1948,-0.009938841
1949,0.018828923
1950,-0.0017157
1951,-0.010348847
1952,-0.003309811
1953,-0.009697717
1954,0.01223773
1955,-0.015786954
1956,-0.007396295
1957,0.004191668
1958,0.009082876
1959,-0.006891349
1960,0.022459728
1961,-0.002045243
1962,0.014498033
1963,-0.01097177
1964,-0.011567767
1965,-0.003282545
1966,-0.013166755
1967,0.008552407
1968,-0.002946024
1969,-0.011912479
1970,-0.001875283
1971,0.003616181
1972,0.009059709
1973,-0.001204473
1974,0.019745129
1975,-0.004488484
1976,0.004962667
1977,-0.005284372
1978,0.002535827
1979,0.003633648
1980,-0.003593244
1981,0.002936889
1982,-0.005453113
1983,-0.001808311
1984,-0.009600779
1985,-0.005054549
1986,-0.012943249
1987,-0.022326508
1988,-0.00046691
1989,-0.001974165
1990,0.00808125
1991,-0.003847515
1992,-4.64E-05
1993,-0.001203347
1994,0.000351077
1995,0.008187027
1996,0.002736158
1997,0.006046535
1998,0.009612993
1999,-0.007034344
2000,0.004500944
2001,-0.004046145
2002,0.001279017
2003,0.0120925
2004,-0.00280381
2005,0.020047096
2006,0.005968834
2007,-0.001266823
2008,0.024078072
2009,-0.005599846
2010,0.023188032
2011,-0.003852777
2012,-0.002377616
2013,0.000510319
2014,0.013129722
2015,0.006930448
2016,-0.012115328
2017,0.014391687
2018,-0.001777579
2019,-0.006125797
2020,0.011453746
2021,0.015364637
2022,-0.002556606
2023,0.018328817
2024,0.010275151
2025,-0.005205065
2026,0.001443681
2027,-0.007557997
2028,-0.003726571
2029,-0.011759062
2030,0.009994789
2031,0.00639167
2032,0.005797216
2033,0.005635417
2034,0.001885919
2035,-0.024724989
2036,0.005206263
2037,-0.007761121
2038,-0.004681308
2039,-0.007951563
2040,0.005122406
2041,-0.000398129
2042,-0.003194068
2043,0.019369772
2044,-0.009723252
2045,0.013451719
2046,-0.007319893
2047,-0.005724556
2048,0.005416128
2049,-0.000848667
2050,0.000150991
2051,-0.01209397
2052,-0.007021366
2053,-0.004209933
2054,0.002925523
2055,-0.004109907
2056,-0.014564783
2057,-0.006600425
2058,-0.011103539
2059,-0.011629758
2060,0.00368374
2061,0.002186189
2062,-0.007238491
2063,0.006538844
2064,-0.008961712
2065,0.001172519
2066,-0.00612993
2067,-0.010087947
2068,0.019516062
2069,0.008695534
2070,-0.003884899
2071,-0.002626974
2072,-0.00683867
2073,0.015217972
2074,0.00612096
2075,0.019300605
2076,-0.001264862
2077,-0.015562248
2078,-0.008562945
2079,0.002745407
2080,0.007875707
2081,-0.007151271
2082,0.003298931
2083,0.008160516
2084,-0.005301483
2085,0.002270635
2086,0.001099823
2087,0.011073786
2088,0.02083089
2089,-0.009613299
2090,-0.006488007
2091,-0.004361771
2092,-0.008862002
2093,0.008244289
2094,0.014875391
2095,0.002118718
2096,-0.012295534
2097,0.007937203
2098,-0.020112942
2099,-0.012873106
2100,-0.006054439
2101,-0.016027057
2102,0.001027101
2103,-0.004151935
2104,0.012714505
2105,0.003261384
2106,0.01038275
2107,-0.002550246
2108,0.011692351
2109,0.004368903
2110,0.016386982
2111,-0.004296476
2112,0.005847308
2113,-0.002735367
2114,-0.006661606
2115,0.014383454
2116,0.006590721
2117,-0.00893164
2118,-0.001494329
2119,-0.008666687
2120,-0.002153011
2121,-0.000212734
2122,0.003447276
2123,0.008078962
2124,0.006080112
2125,-0.000354915
2126,-0.008983544
2127,0.007106977
2128,-0.006188507
2129,0.017291655
2130,-0.006024256
2131,0.004385953
2132,0.005522681
2133,0.00774187
2134,9.70E-05
2135,-0.002532236
2136,-0.005738886
2137,0.00757572
2138,0.005768257
2139,0.005887404
2140,0.019478798
2141,0.007298132
2142,0.017809471
2143,-0.008447318
2144,0.006190739
2145,-0.00917627
2146,0.000747998
2147,0.005012765
2148,0.005238164
2149,-0.004358662
2150,0.006244385
2151,-0.014859512
2152,-0.007468137
2153,0.000185081
2154,-0.00212943
2155,0.013883252
2156,-0.007421492
2157,0.006844769
2158,0.006707469
2159,-0.005718377
2160,0.020381308
2161,-0.010120839
2162,0.015375231
2163,0.009692158
2164,0.007243447
2165,-0.01457001
2166,0.01126731
2167,0.001435306
2168,0.00624809
2169,0.005319758
2170,-0.001980783
2171,0.00994232
2172,-0.007876532
2173,0.003617536
2174,-0.011054224
2175,-0.011661959
2176,-0.023420869
2177,0.006353361
2178,0.004650541
2179,0.001459948
2180,0.013202266
2181,0.001934575
2182,0.001304488
2183,-0.008389346
2184,0.001723051
2185,0.006818764
2186,0.002550461
2187,-0.00887497
2188,-0.012529568
2189,-0.002384541
2190,-0.012084474
2191,-0.005226769
2192,-0.012750793
2193,-0.006296051
2194,-0.001353055
2195,0.009215036
2196,0.007601303
2197,0.010054086
2198,-0.015214378
2199,0.010622126
2200,0.007457874
2201,0.011427178
2202,0.012970366
2203,-0.004498249
2204,0.008704672
2205,0.005037991
2206,-0.001855122
2207,-0.003192883
2208,-0.003369901
2209,-0.019010084
2210,0.006949277
2211,-0.011922361
2212,3.28E-05
2213,-0.006893217
2214,1.85E-05
2215,0.000977814
2216,0.014727429
2217,-0.007137053
2218,0.002457757
2219,0.013454767
2220,0.00818767
2221,-0.005003644
2222,0.000511402
2223,0.00955082
2224,-0.003686048
2225,0.018575043
2226,-0.007041997
2227,0.015661053
2228,0.006598501
2229,-0.011555298
2230,-0.003889125
2231,-0.016268151
2232,0.017601462
2233,-0.011342164
2234,-0.011443436
2235,0.008231793
2236,-0.000472197
2237,-0.021811
2238,0.008429943
2239,0.009215721
2240,-0.011104955
2241,-0.000957892
2242,-0.01326974
2243,-0.009446803
2244,0.01051049
2245,0.000402024
2246,0.004022891
2247,0.011195765
2248,0.00539504
2249,0.013894545
2250,-0.009794638
2251,0.01037655
2252,-0.015081462
2253,-0.00213052
2254,-0.007398664
2255,0.003298877
2256,0.00594474
2257,-0.001523564
2258,-0.006042036
2259,0.009145801
2260,0.002105039
2261,-0.007252916
2262,0.009805657
2263,-0.008543541
2264,-0.024418434
2265,-0.001249596
2266,0.007177835
2267,0.011946868
2268,0.008435543
2269,0.008202409
2270,-0.010930241
2271,-0.005382567
2272,0.000103744
2273,0.009005942
2274,-0.010502061
2275,-0.002288611
2276,0.008493463
2277,0.000738966
2278,-0.008083907
2279,-0.014795907
2280,-0.008734861
2281,-0.005500322
2282,0.008361652
2283,-0.00842006
2284,-0.005658947
2285,-0.015849237
2286,0.006030192
2287,-0.010715699
2288,-0.003941834
2289,-0.002928008
2290,-0.017270908
2291,0.017729768
2292,-0.005345379
2293,0.00049591
2294,-0.014351949
2295,-0.000390352
2296,-0.000693342
2297,-0.019033459
2298,-0.013922055
2299,-0.000742415
2300,0.004908292
2301,0.011139301
2302,-0.005505567
2303,-0.012972737
2304,0.014193898
2305,0.017530695
2306,-0.014160373
2307,-4.69E-05
2308,0.018275086
2309,0.007016994
2310,-0.003901651
2311,0.006028411
2312,-0.010038522
2313,-0.019978805
2314,-0.003886554
2315,-0.008352964
2316,0.011323401
2317,-0.016572091
2318,-0.001717222
2319,-0.002123485
2320,0.006262661
2321,0.001346076
2322,0.009796614
2323,-0.004627944
2324,0.008194975
2325,0.013527906
2326,-0.008655475
2327,0.006786164
2328,-0.000645393
2329,0.004034511
2330,0.010943589
2331,0.003175793
2332,0.009391697
2333,0.003842059
2334,0.008793124
2335,0.01267787
2336,-0.014477234
2337,0.009066313
2338,-0.002771204
2339,-0.013943778
2340,0.016037774
2341,0.003629811
2342,-0.013610859
2343,-0.013455185
2344,-0.004315352
2345,-0.019472183
2346,0.003681518
2347,0.00189561
2348,0.021899491
2349,-0.001538688
2350,-0.002535196
2351,0.014712131
2352,-0.009799173
2353,0.013160247
2354,-0.018862881
2355,0.025911728
2356,0.00412694
2357,0.002222275
2358,0.000389625
2359,-0.016445068
2360,0.009989204
2361,-0.0348556
2362,-0.020003961
2363,0.019647299
2364,-0.007107869
2365,0.011741498
2366,0.005616988
2367,-0.0105086
2368,-0.009241339
2369,-0.001627281
2370,-0.006550257
2371,-8.68E-05
2372,-0.015122151
2373,-0.008927644
2374,0.002891803
2375,-0.00442978
2376,-0.00962333
2377,0.009372207
2378,-0.001356807
2379,-0.01419974
2380,0.001342326
2381,-0.019268891
2382,0.018009069
2383,0.009594947
2384,-0.006405217
2385,-0.014073943
2386,0.003482404
2387,-0.01147861
2388,0.002466762
2389,0.006383624
2390,0.006551257
2391,-0.011994511
2392,-0.005234402
2393,-0.002376785
2394,0.019306978
2395,-0.005909281
2396,-0.001999273
2397,-0.014628117
2398,0.000730588
2399,-0.006154781
2400,-0.010466091
2401,0.014830971
2402,0.003517044
2403,0.014883041
2404,-0.000616719
2405,0.011237024
2406,-0.027610048
2407,-0.00183148
2408,0.012498752
2409,0.000166623
2410,0.011107443
2411,-0.006130359
2412,-0.000118086
2413,-0.001215354
2414,0.008579583
2415,0.004454757
2416,0.00398947
2417,-0.012684921
2418,0.006098256
2419,0.002279097
2420,-0.009540832
2421,0.011252587
2422,-0.001065742
2423,-0.009773491
2424,0.011639244
2425,0.032233299
2426,0.002934394
2427,-0.006163625
2428,0.004879066
2429,0.008015269
2430,-0.001032242
2431,0.005031384
2432,-0.021111551
2433,-0.002832861
2434,0.007711851
2435,-0.012576828
2436,0.005657654
2437,0.001620375
2438,0.004266546
2439,-0.00678412
2440,0.000915182
2441,0.000627231
2442,-0.000746501
2443,0.001356634
2444,0.003482612
2445,0.01189063
2446,0.009261073
2447,0.014111244
2448,0.011108709
2449,0.000212432
2450,-0.007355809
2451,-0.004523643
2452,-0.003326753
2453,0.015667032
2454,0.001588699
2455,0.003977086
2456,-0.0044181
2457,-0.026097684
2458,-0.00436838
2459,0.013500765
2460,0.001616966
2461,0.000208815
2462,-0.009059516
2463,0.000627563
2464,0.013504685
2465,0.004523366
2466,-0.014111378
2467,-0.002120867
2468,-0.006800427
2469,-0.002133025
2470,0.011498357
2471,0.008937684
2472,0.006661977
2473,-0.004767474
2474,0.007277772
2475,0.015957524
2476,-0.00910893
2477,-0.008855582
2478,-0.011496247
2479,0.018239338
2480,0.005940326
2481,-0.028166282
2482,-0.010152519
2483,0.00064345
2484,0.000444583
2485,-0.016120834
2486,-0.017612684
2487,-0.000996587
2488,0.003176294
2489,0.018605074
2490,0.006952608
2491,-0.001313303
2492,-0.00712615
2493,-0.016592018
2494,-0.000228522
2495,0.004166461
2496,0.001042518
2497,-0.006109636
2498,-0.009673855
2499,-0.003725651
2500,0.014551945
2501,-0.0013235
2502,-0.003658381
2503,-0.005823239
2504,0.001545653
2505,-0.005631006
2506,-0.006495833
2507,-0.006127637
2508,-0.000547198
2509,-0.016237466
2510,-0.002824194
2511,0.001295771
2512,-0.012274609
2513,0.009140077
2514,-0.002749707
2515,0.005716245
2516,-0.008350481
2517,0.012532223
2518,-0.001421386
2519,-0.001025633
2520,-0.00328471
2521,0.00360798
2522,0.012212615
2523,-0.00658959
2524,-0.008346757
2525,0.013445332
2526,0.015757345
2527,0.010592046
2528,-0.008651424
2529,2.53E-05
2530,-0.015960314
2531,-0.014772436
2532,-0.000819386
2533,-0.013271106
2534,0.007787327
2535,-0.016155078
2536,0.00904837
2537,0.006983388
2538,0.012049909
2539,-0.007538241
2540,0.000513282
2541,-0.009035587
2542,0.002026033
2543,-0.010905942
2544,0.007747854
2545,-0.010122669
2546,-0.003393514
2547,0.021256681
2548,0.007533907
2549,-0.007777892
2550,0.020772871
2551,0.023666544
2552,-0.006925505
2553,-0.001876179
2554,0.005291441
2555,0.008989525
2556,-0.002288762
2557,-0.013707115
2558,0.001019782
2559,0.009438928
2560,-0.006319904
2561,0.000649132
2562,-0.017894467
2563,0.006488305
2564,0.003717347
2565,-0.004724987
2566,0.010262577
2567,0.007026918
2568,-0.015610849
2569,0.008454848
2570,0.001514552
2571,-0.018698433
2572,-0.00168456
2573,0.013257418
2574,0.02816888
2575,-0.007785675
2576,0.026739834
2577,0.000192681
2578,-0.011094266
2579,0.005964861
2580,0.007431764
2581,0.009967941
2582,-0.003704809
2583,-0.018526848
2584,0.009072084
2585,0.019881159
2586,-0.005760293
2587,-0.002533529
2588,0.020664116
2589,0.001847449
2590,-0.007052198
2591,-0.002074759
2592,-0.026657886
2593,-0.006762249
2594,-0.002633859
2595,0.012729668
2596,-0.000124663
2597,0.0141084
2598,-0.00406482
2599,0.016398507
2600,-0.004402708
2601,0.007722499
2602,0.012138758
2603,-0.030442148
2604,0.02008586
2605,0.017189779
2606,0.00587354
2607,0.000167391
2608,0.002414226
2609,0.001994476
2610,0.009009316
2611,-0.001919066
2612,0.014908843
2613,-0.001844006
2614,0.00075685
2615,0.019532707
2616,-0.008524118
2617,-0.012967733
2618,-0.014249838
2619,-0.00140943
2620,0.001907648
2621,0.003113177
2622,-0.002355286
2623,-0.022249503
2624,0.00326704
2625,-0.011142317
2626,0.004040553
2627,0.003967849
2628,0.008949618
2629,-0.012981333
2630,-0.006092764
2631,0.000656957
2632,-0.01147297
2633,-0.019527285
2634,0.009290489
2635,-0.016639743
2636,-0.000380068
2637,0.019378506
2638,0.008377668
2639,0.012545574
2640,0.00442141
2641,-0.012326871
2642,0.010727884
2643,-0.016694504
2644,-0.014077454
2645,0.022477977
2646,0.002362297
2647,-0.009768224
2648,0.003382605
2649,0.000332486
2650,0.002733174
2651,0.008675962
2652,0.003903893
2653,0.012385629
2654,-0.010829491
2655,0.012819376
2656,-0.00273461
2657,-0.017691997
2658,0.008530686
2659,0.014438191
2660,-0.019182632
2661,-0.010275344
2662,0.00039427
2663,-0.005100917
2664,-0.01242096
2665,0.004220682
2666,0.014939452
2667,-0.002570364
2668,-0.000758151
2669,0.0112554
2670,-0.012906828
2671,0.016486881
2672,-0.008213579
2673,-0.001787865
2674,-0.010824468
2675,-0.003661662
2676,0.004181862
2677,-0.010035137
2678,-0.007430049
2679,0.012014922
2680,-0.003438794
2681,-0.003857778
2682,0.009932813
2683,-0.000262649
2684,-0.003150271
2685,0.00718411
2686,-0.004024574
2687,0.013051807
2688,-0.003026884
2689,0.015728405
2690,0.003903645
2691,0.029877989
2692,0.005086481
2693,0.005140301
2694,-0.017062972
2695,-0.006818764
2696,-0.009598509
2697,0.007879131
2698,-0.000437552
2699,0.006868833
2700,-0.005491253
2701,0.008123023
2702,0.005588324
2703,-0.011624224
2704,0.007120207
2705,0.009453572
2706,-0.003914213
2707,-0.003759497
2708,0.000918494
2709,0.014463459
2710,-0.001587518
2711,0.004295337
2712,0.009871997
2713,0.01009537
2714,0.008160206
2715,0.004915264
2716,-0.001815807
2717,0.009346443
2718,-0.002281529
2719,-0.026429185
2720,-0.029587097
2721,0.003822682
2722,0.016422378
2723,-0.015595706
2724,-0.000887097
2725,-0.022758183
2726,0.003953562
2727,0.001700236
2728,0.003302294
2729,-0.024123016
2730,-0.005728099
2731,0.012142647
2732,0.001402092
2733,-0.00434362
2734,-0.005508295
2735,-0.006855611
2736,-0.008333044
2737,0.002441435
2738,-0.011446238
2739,0.002783155
2740,-0.011293775
2741,0.013186221
2742,0.001994242
2743,0.005422263
2744,-0.01193742
2745,-0.001789334
2746,-0.004799084
2747,-0.010036759
2748,0.009115336
2749,0.017492827
2750,-0.000877945
2751,-0.004276384
2752,0.004144184
2753,0.011786439
2754,0.017277579
2755,0.011924283
2756,-0.019195123
2757,0.008515451
2758,-0.00202362
2759,0.005802499
2760,0.011343461
2761,0.021578105
2762,0.01637308
2763,-0.006784356
2764,-0.00736305
2765,-0.00307412
2766,0.003934315
2767,0.01563815
2768,0.011332597
2769,-0.012346912
2770,-0.015015257
2771,0.000125807
2772,0.002231419
2773,0.00523923
2774,0.009122961
2775,0.005134614
2776,0.013245153
2777,-0.002902624
2778,-0.001104642
2779,0.006116141
2780,-0.003191957
2781,0.008985539
2782,-0.002600995
2783,-0.02274294
2784,0.005163154
2785,0.000855173
2786,-0.005292523
2787,0.005113959
2788,0.013293295
2789,0.012471997
2790,0.010166015
2791,-0.011353749
2792,0.006031633
2793,-0.003043378
2794,0.002905677
2795,0.015573127
2796,0.004260268
2797,-0.005011426
2798,0.017838806
2799,0.006660523
2800,0.002582286
2801,-0.018734544
2802,-0.00976854
2803,-0.013035903
2804,-0.00353038
2805,-0.017727034
2806,-0.007318428
2807,0.006166097
2808,-0.01242061
2809,-0.019604905
2810,-0.013295754
2811,0.014549721
2812,0.016386933
2813,-0.005716724
2814,-0.006078701
2815,0.01828421
2816,0.005428013
2817,0.004527141
2818,-0.005059452
2819,-0.001571166
2820,-0.008534522
2821,0.002103234
2822,0.000988302
2823,0.011927216
2824,0.009600235
2825,0.00284481
2826,0.017916525
2827,-0.000908699
2828,0.026623738
2829,0.014968354
2830,0.000844147
2831,0.007595768
2832,-0.003239178
2833,0.009014003
2834,-0.003089469
2835,-0.005877337
2836,-0.003761732
2837,-0.002688502
2838,0.003674963
2839,-0.00617821
2840,0.010772394
2841,-0.002750405
2842,-0.01961834
2843,-0.003952623
2844,0.017146067
2845,-0.010917548
2846,0.000883205
2847,0.008412789
2848,0.022117851
2849,0.007113879
2850,-0.001650056
2851,-0.007126342
2852,0.007451593
2853,-0.002215097
2854,0.008470809
2855,-0.007090377
2856,-0.002723642
2857,-0.013997432
2858,0.000371823
2859,0.01575253
2860,0.005911128
2861,-0.007017036
2862,0.001335826
2863,-0.005798968
2864,-0.003550653
2865,0.006399884
2866,0.00349617
2867,-0.003889524
2868,-0.006880012
2869,-0.002848671
2870,-0.012676566
2871,0.000579712
2872,-0.00595556
2873,0.009079782
2874,0.020177382
2875,0.002074759
2876,-0.002254176
2877,0.022705965
2878,-0.005445427
2879,-0.000418013
2880,0.003694385
2881,0.00556144
2882,0.002926337
2883,0.000730873
2884,0.004384999
2885,-0.012645739
2886,-0.002914582
2887,-0.009542153
2888,-0.012599205
2889,-0.00275675
2890,0.025819098
2891,0.007492897
2892,-0.004671053
2893,-0.003719567
2894,0.005553964
2895,-0.021331212
2896,0.010891863
2897,-0.000253927
2898,0.008352543
2899,0.003025906
2900,-0.004317121
2901,-0.008056936
2902,0.014874343
2903,-0.010035625
2904,-0.006338992
2905,-5.49E-05
2906,0.000144471
2907,-0.007940645
2908,0.00798887
2909,0.004449626
2910,0.020718095
2911,0.003280537
2912,0.006103657
2913,0.013557989
2914,0.01989896
2915,-0.007859602
2916,-0.002357905
2917,-0.009088237
2918,-0.020765751
2919,0.011670871
2920,-0.002819132
2921,0.021954055
2922,0.005050619
2923,0.001511406
2924,-0.009876776
2925,0.007939121
2926,0.002041005
2927,-0.005575628
2928,0.01416911
2929,0.009003206
2930,-0.017083084
2931,-0.000730449
2932,-0.014839185
2933,0.001326118
2934,0.000683291
2935,-0.009417162
2936,-0.00759733
2937,0.009084661
2938,-0.005971059
2939,0.008514037
2940,0.000599295
2941,0.003721396
2942,-0.004354328
2943,-0.005589366
2944,0.009193363
2945,-0.001579699
2946,-0.012453599
2947,0.012086932
2948,-0.008714844
2949,0.006273442
2950,0.000421668
2951,0.001710715
2952,0.003137297
2953,0.006719512
2954,0.017697464
2955,0.008955248
2956,0.013857186
2957,0.002566399
2958,0.009926757
2959,0.001491014
2960,-0.008044931
2961,-0.013188418
2962,-0.010429879
2963,0.019204473
2964,-0.00649305
2965,-0.010833934
2966,-0.005106575
2967,-0.007630838
2968,0.003145004
2969,-0.001693109
2970,-0.014771203
2971,-0.00945996
2972,0.007137136
2973,-0.001790694
2974,0.000460854
2975,0.015430523
2976,0.002331198
2977,0.009370746
2978,-0.012756739
2979,-0.008907098
2980,0.004653556
2981,-0.020369878
2982,0.00747912
2983,0.001431824
2984,-0.008607741
2985,0.002748958
2986,0.002556954
2987,-0.005907913
2988,0.003168509
2989,-0.009765077
2990,-0.002150755
2991,-0.010322656
2992,0.002325749
2993,-0.000985575
2994,0.001572525
2995,-0.004136536
2996,0.003049569
2997,0.001924796
2998,0.007602996
2999,0.000281277
3000,0.010574729
3001,7.91E-05
3002,-0.002056637
3003,0.00863564
3004,-0.000392012
3005,-0.012188463
3006,0.006750569
3007,0.007122979
3008,-0.013466624
3009,0.018699018
3010,0.004916454
3011,-0.016371356
3012,-0.008954894
3013,0.02508536
3014,-5.96E-05
3015,0.002813746
3016,-0.004082091
3017,0.010887492
3018,-0.00773197
3019,0.001320376
3020,0.009130817
3021,0.014079577
3022,0.011181636
3023,0.004507922
3024,-0.010711501
3025,0.019527639
3026,0.000357929
3027,0.009571489
3028,0.008696513
3029,-0.002120574
3030,0.00335924
3031,0.009238387
3032,-0.016839393
3033,0.009313068
3034,-0.003202025
3035,0.005907194
3036,0.011874908
3037,-0.002538043
3038,-0.009813837
3039,0.007702483
3040,-0.000151934
3041,0.0098232
3042,-0.012468846
3043,0.005381252
3044,0.003526529
3045,-0.004241284
3046,0.004216533
3047,0.008242929
3048,0.001063111
3049,-0.003184009
3050,-0.017865617
3051,0.005143137
3052,0.011919759
3053,0.000625932
3054,-0.002010149
3055,-0.00106715
3056,0.013646109
3057,0.004432028
3058,-0.006600052
3059,-0.012105903
3060,0.003532488
3061,0.031432205
3062,0.022148665
3063,0.011397219
3064,-0.006774024
3065,0.010415546
3066,-0.002636147
3067,-0.002746628
3068,-0.006606285
3069,-0.021488815
3070,-0.008572896
3071,0.012697172
3072,0.019362808
3073,0.008294245
3074,0.005458889
3075,-0.006153086
3076,-0.003613643
3077,0.017486118
3078,0.011490001
3079,0.005668051
3080,-0.001570086
3081,0.004295259
3082,-0.013954744
3083,0.00242946
3084,0.014894328
3085,-0.006604382
3086,0.006802918
3087,0.011498189
3088,0.007943238
3089,-0.003318506
3090,0.003394986
3091,0.011510452
3092,0.000345289
3093,-0.012959831
3094,0.001926699
3095,0.002583838
3096,-0.002778654
3097,-0.005720972
3098,-0.009976187
3099,-0.007343996
3100,-0.013041147
3101,-0.005896262
3102,-0.007223309
3103,-0.006658031
3104,0.003887213
3105,0.007300174
3106,-0.003775531
3107,-0.014400075
3108,0.000536501
3109,0.005353484
3110,0.008512452
3111,-0.01578392
3112,-0.000287477
3113,0.011050391
3114,0.016196278
3115,-0.00382788
3116,0.005425912
3117,-0.001744753
3118,0.016963004
3119,-0.017132435
3120,-0.024774827
3121,-0.0028531
3122,-0.012805755
3123,-0.005263246
3124,-0.004251458
3125,-0.006351438
3126,-0.000293527
3127,0.010829157
3128,0.011861636
3129,-0.003482912
3130,-0.021561155
3131,0.003827209
3132,0.002463608
3133,-0.000905529
3134,-0.007243767
3135,0.009755608
3136,0.020909984
3137,-0.012037276
3138,0.007760579
3139,-0.025779704
3140,-0.013079857
3141,0.002126287
3142,0.012279414
3143,0.008225005
3144,0.015552002
3145,0.010904029
3146,-0.009723262
3147,-0.013589519
3148,0.008064067
3149,-0.01084978
3150,0.002069425
3151,0.001527721
3152,0.005041343
3153,0.016919462
3154,-0.021751355
3155,0.020960024
3156,0.004773981
3157,0.008067902
3158,0.00702341
3159,0.001172615
3160,-0.000513062
3161,0.003135263
3162,-0.020134598
3163,-0.008679103
3164,0.014580386
3165,-0.00573751
3166,-0.007082261
3167,-0.002985411
3168,0.01544176
3169,-0.003551909
3170,0.00933424
3171,-0.000591317
3172,0.004974927
3173,0.004640015
3174,0.003293255
3175,-0.007688786
3176,0.003779559
3177,-0.008599285
3178,-0.003122367
3179,-0.015692024
3180,0.0050326
3181,-0.011299195
3182,-0.00082674
3183,-0.005796467
3184,-0.008502147
3185,0.014757688
3186,-0.012327023
3187,0.008844332
3188,0.007803898
3189,0.018645795
3190,-0.012846532
3191,-0.000513521
3192,0.00149469
3193,-0.007085336
3194,-0.01413526
3195,-0.004968205
3196,-0.010234193
3197,-0.007143591
3198,0.005245176
3199,-0.007694555
3200,-0.002072975
3201,0.020811612
3202,-0.011860872
3203,-0.006008622
3204,-0.002526277
3205,-0.000329502
3206,0.009240911
3207,-0.002191118
3208,0.010904881
3209,-0.004832631
3210,-0.000820011
3211,0.011509949
3212,0.016800357
3213,0.011395686
3214,-0.00290227
3215,0.016412145
3216,0.015240884
3217,-0.010038168
3218,0.010484061
3219,0.00137653
3220,0.006281341
3221,-0.004117565
3222,0.005216752
3223,-0.021558353
3224,-0.00089942
3225,-0.02064216
3226,-0.001751717
3227,0.013729835
3228,0.011001335
3229,0.008268783
3230,-0.00222852
3231,-0.001992799
3232,-0.017829704
3233,1.33E-05
3234,0.000317263
3235,-0.028428301
3236,0.004340961
3237,0.00983937
3238,-0.012315671
3239,0.008369761
3240,-0.016047217
3241,-0.007802162
3242,0.005561318
3243,-0.001852204
3244,0.002072067
3245,-0.011425077
3246,0.001523806
3247,-0.021860078
3248,0.024730172
3249,0.005428232
3250,0.007551888
3251,0.023976133
3252,0.011781872
3253,-0.006075025
3254,0.006207406
3255,-0.012050902
3256,0.026964612
3257,0.004817568
3258,-0.012093867
3259,-0.002510165
3260,0.005416809
3261,0.023838797
3262,0.00322472
3263,0.011586816
3264,0.006288743
3265,0.026682482
3266,-0.013583437
3267,-0.000679112
3268,-0.000972447
3269,-0.010529903
3270,-0.027775383
3271,0.012660832
3272,0.016293745
3273,-0.013267613
3274,-0.006624872
3275,-0.000311437
3276,-0.021975741
3277,0.004161202
3278,0.017507179
3279,-0.011041312
3280,0.002441631
3281,-0.001336126
3282,-0.019088927
3283,0.003673621
3284,-0.011659924
3285,0.014722191
3286,0.013214736
3287,-0.00928903
3288,0.010980517
3289,0.005457664
3290,-0.010926376
3291,-0.003992469
3292,-0.003377901
3293,-0.001095047
3294,0.004878244
3295,6.57E-05
3296,-0.008923683
3297,-0.019743954
3298,0.004357598
3299,-0.003757481
3300,-0.007870369
3301,-0.0068075
3302,-0.008414167
3303,-0.009893348
3304,0.012189647
3305,0.005635898
3306,-0.009267079
3307,0.002624845
3308,-0.006996205
3309,-0.004047125
3310,-0.003808079
3311,0.009993119
3312,-0.00091299
3313,0.014167221
3314,0.001167493
3315,0.001415612
3316,0.005509521
3317,-0.000553346
3318,0.004596387
3319,-0.007005017
3320,-0.0024066
3321,0.006808385
3322,0.012900233
3323,0.010118433
3324,-0.004890116
3325,-0.019197892
3326,0.013000446
3327,0.00683595
3328,0.004698273
3329,0.004811944
3330,-0.001299246
3331,0.019022699
3332,0.004730733
3333,0.000178707
3334,-0.013657688
3335,-0.001487129
3336,-0.003680096
3337,0.003340192
3338,-0.015834694
3339,-0.005958161
3340,-0.00790524
3341,-0.004984519
3342,0.001529866
3343,0.002385399
3344,0.001276012
3345,0.001731322
3346,0.012491101
3347,0.012251121
3348,-0.017289918
3349,0.009791845
3350,0.011771635
3351,0.017346472
3352,0.017921544
3353,-0.012634085
3354,0.003871531
3355,-0.001943888
3356,0.000156869
3357,-0.015779349
3358,0.005295563
3359,-0.013518561
3360,0.004982644
3361,0.004555706
3362,0.005344146
3363,-0.003165024
3364,0.009607535
3365,0.012768713
3366,-0.009920666
3367,0.012392182
3368,0.021333033
3369,0.005559127
3370,-0.000747792
3371,0.013977133
3372,0.011971033
3373,-0.00604121
3374,-0.009813895
3375,-0.006880287
3376,-0.002050546
3377,-0.017423617
3378,0.005249644
3379,-0.003138247
3380,-0.021893367
3381,-0.017599485
3382,-0.011956938
3383,0.004741301
3384,0.007659981
3385,-0.001012143
3386,0.005563165
3387,-0.002735909
3388,0.006793316
3389,-0.001160228
3390,0.001958571
3391,0.012911133
3392,0.003837608
3393,-0.007390756
3394,0.004418937
3395,0.003206216
3396,-0.015842348
3397,-0.006294829
3398,0.002931172
3399,-0.003007323
3400,0.012646645
3401,-0.009126157
3402,-0.000975291
3403,0.009090381
3404,0.011556829
3405,-0.003863722
3406,0.008096409
3407,0.00057926
3408,-0.009951813
3409,0.006879376
3410,0.000878528
3411,0.006377817
3412,-0.010029471
3413,0.013030839
3414,0.007937247
3415,-0.015372338
3416,-0.004494902
3417,-0.001364092
3418,0.005078834
3419,-6.26E-05
3420,-0.006259584
3421,0.000544556
3422,0.011247253
3423,0.008669022
3424,0.001187833
3425,0.021483404
3426,0.0008917
3427,0.002213519
3428,-0.010226967
3429,-0.014270301
3430,0.003958315
3431,0.017825034
3432,-0.000673091
3433,0.000526069
3434,0.018864847
3435,-0.009575018
3436,0.004091524
3437,0.001275062
3438,0.005297706
3439,0.010826794
3440,-0.001486985
3441,-0.001061137
3442,-0.003816269
3443,-0.002105235
3444,0.008611255
3445,-0.00898829
3446,0.015484052
3447,0.011268841
3448,-0.022169491
3449,-0.00232204
3450,0.015650016
3451,-0.010483951
3452,-0.001633664
3453,0.00301761
3454,-0.006193679
3455,0.001453525
3456,0.011403929
3457,-0.003306112
3458,-0.01374962
3459,0.00633484
3460,-0.003132188
3461,0.013018819
3462,-0.001366735
3463,0.013834315
3464,-0.002282388
3465,-0.003994933
3466,0.00781106
3467,0.001296992
3468,-0.002804774
3469,0.011316252
3470,-0.014424051
3471,-0.006154439
3472,0.013480751
3473,0.019988529
3474,-0.022803054
3475,0.028344357
3476,-0.006986618
3477,-0.014127539
3478,0.008838809
3479,-0.001416224
3480,-0.00610288
3481,-0.020900046
3482,-0.00747014
3483,-0.003194394
3484,-0.006191338
3485,0.001475198
3486,-0.00769262
3487,0.005504608
3488,0.01562589
3489,0.004794731
3490,0.005816086
3491,0.009642038
3492,-0.007637418
3493,-0.02141246
3494,-0.008096082
3495,-0.004823527
3496,0.006607694
3497,0.002795504
3498,-0.023539448
3499,0.004929753
3500,-0.003888537
3501,-0.002168625
3502,0.009454073
3503,-0.000401306
3504,-0.017060432
3505,-0.021737789
3506,-0.004727274
3507,-0.013948291
3508,0.008239006
3509,-0.000395544
3510,-0.007512878
3511,0.002270437
3512,-0.008312119
3513,-0.002662242
3514,0.001402087
3515,0.019036832
3516,-0.005265047
3517,0.001592571
3518,-0.008194273
3519,0.006550403
3520,-0.020084663
3521,0.016448714
3522,0.002311655
3523,-0.006558838
3524,-0.001413877
3525,0.000670943
3526,0.013929706
3527,-0.021734778
3528,0.017350451
3529,-0.008040154
3530,-0.004501857
3531,-0.004794855
3532,-9.17E-05
3533,0.00681319
3534,-0.017372307
3535,0.012800246
3536,-0.011917239
3537,-0.01267301
3538,0.016121137
3539,0.003302951
3540,0.01002183
3541,-0.000758311
3542,-0.006080432
3543,0.007280668
3544,-0.001850964
3545,0.018202115
3546,-0.013711448
3547,0.000869176
3548,-0.00637223
3549,0.015999644
3550,0.006893511
3551,-0.010188313
3552,-0.017323044
3553,-0.009562628
3554,0.013829366
3555,-0.003863127
3556,0.011927523
3557,0.00027424
3558,0.007183066
3559,0.001351597
3560,0.013944493
3561,-0.002353056
3562,-0.001835544
3563,0.000493302
3564,0.009810123
3565,-0.012269141
3566,-0.008098356
3567,-0.00073119
3568,-0.005027223
3569,0.008348996
3570,-0.001598546
3571,-0.013177713
3572,-0.006149993
3573,-0.001265091
3574,-0.001808029
3575,0.01176253
3576,0.002382447
3577,-0.004439177
3578,0.006966381
3579,0.026473664
3580,-0.005523935
3581,0.006271561
3582,-0.001966222
3583,0.001852907
3584,-0.011087592
3585,0.007208993
3586,-0.021136863
3587,0.002005326
3588,-0.003443919
3589,-0.017925139
3590,-0.006648413
3591,-0.014401484
3592,-0.011910163
3593,0.003018204
3594,0.008654782
3595,-0.009698612
3596,-0.020112778
3597,0.018045399
3598,0.023672514
3599,-0.001516463
3600,-0.006426307
3601,0.003190713
3602,-0.003085093
3603,0.010313944
3604,0.001455683
3605,-0.000623984
3606,0.008977982
3607,-0.00343048
3608,-0.010380912
3609,0.012586226
3610,0.00493839
3611,0.00367331
3612,0.002224926
3613,-0.010234611
3614,-0.008505268
3615,-0.019695526
3616,-0.004523865
3617,0.003924664
3618,-0.008753475
3619,-0.016948196
3620,-0.002493114
3621,-0.002432945
3622,-0.015405804
3623,0.020069141
3624,0.006312779
3625,-0.002775963
3626,0.007387547
3627,-0.014169602
3628,-0.000341314
3629,0.009242016
3630,0.007893288
3631,-0.000244134
3632,-0.02216114
3633,0.002354503
3634,0.006371752
3635,0.022240377
3636,-0.004032092
3637,0.004737611
3638,0.012911018
3639,0.00664732
3640,-0.003705189
3641,-0.01915234
3642,-0.006118668
3643,0.00422622
3644,-0.005077075
3645,0.019761584
3646,-0.000884094
3647,0.010116951
3648,-0.010129096
3649,-0.010503808
3650,-0.00577795
3651,0.012773683
3652,-0.002276559
3653,0.014190773
3654,-0.017407657
3655,-0.0073563
3656,-0.005458135
3657,0.000553348
3658,-0.013774422
3659,-0.003250636
3660,0.006903749
3661,0.007233059
3662,-0.005122471
3663,0.000392053
3664,-0.002072416
3665,0.008951577
3666,-0.008043719
3667,-0.011962576
3668,0.001062742
3669,0.012923199
3670,0.004461819
3671,0.017427797
3672,0.007294349
3673,-0.00202543
3674,-0.01215055
3675,0.034718758
3676,0.012776216
3677,0.007120803
3678,0.010927689
3679,0.000334143
3680,0.025846369
3681,0.000709332
3682,0.007667871
3683,0.000962026
3684,6.29E-05
3685,0.005814556
3686,0.007428313
3687,0.017849533
3688,-0.007156805
3689,-0.007288059
3690,-0.004952887
3691,-0.010599693
3692,0.008592297
3693,0.004165132
3694,0.01174395
3695,-0.007288736
3696,0.014001813
3697,0.01882431
3698,-0.01788557
3699,-0.016864
3700,0.002583696
3701,0.003893752
3702,-0.004999272
3703,0.012977301
3704,-0.000286248
3705,-0.001989975
3706,-0.011395309
3707,-0.009078952
3708,0.005559814
3709,-0.012911547
3710,0.011653012
3711,-0.007311842
3712,-0.00136219
3713,0.002730025
3714,-0.001925403
3715,-0.002149074
3716,-0.005522469
3717,0.003997619
3718,-0.008129164
3719,-0.013320252
3720,-0.013128023
3721,0.00562847
3722,-0.011253964
3723,0.00452623
3724,0.006443612
3725,0.003592864
3726,0.001812753
3727,-0.002150859
3728,0.003057479
3729,-0.011093441
3730,0.004920751
3731,0.006233389
3732,-0.013249825
3733,0.00998393
3734,-0.001005031
3735,-0.006569907
3736,0.008037324
3737,-0.001425795
3738,0.005184119
3739,0.000275559
3740,-0.002889457
3741,-0.003284005
3742,0.004747266
3743,0.003862535
3744,-0.015927029
3745,0.03007526
3746,0.011100162
3747,0.004415149
3748,0.000529002
3749,0.005661975
3750,-0.005131421
3751,-0.012264614
3752,-0.007368408
3753,0.007731194
3754,0.008147997
3755,-0.008374417
3756,-0.002707937
3757,0.017890103
3758,-0.010442875
3759,-0.012102987
3760,0.01484539
3761,-0.000369511
3762,-0.01154354
3763,-0.010350518
3764,-0.022234008
3765,0.005242368
3766,-0.008554006
3767,0.01119841
3768,-0.00494701
3769,0.001032319
3770,0.009343651
3771,0.016284258
3772,0.001733968
3773,-0.009913294
3774,-0.004337062
3775,-0.001837411
3776,-0.007300696
3777,-0.004610339
3778,-0.010998318
3779,0.016861806
3780,-0.010584176
3781,-0.009129811
3782,0.004890019
3783,-0.000978166
3784,-0.019454183
3785,0.019363267
3786,0.004632146
3787,-0.003616735
3788,-0.005807396
3789,0.01040172
3790,-0.001440425
3791,-0.002129164
3792,0.002325302
3793,-0.001237552
3794,0.000292175
3795,-0.0046124
3796,-0.011499002
3797,0.003243513
3798,-0.005332474
3799,-0.005539214
3800,0.010063801
3801,-0.003333413
3802,0.009608523
3803,-0.003436115
3804,0.009241384
3805,-0.002907596
3806,-0.002979832
3807,0.006239959
3808,0.00894428
3809,-0.001222716
3810,-0.008413675
3811,0.010110869
3812,0.012826722
3813,-0.010235031
3814,0.003151163
3815,-0.005435374
3816,-0.007632533
3817,-0.00495136
3818,-0.007309841
3819,-0.000952921
3820,-0.018035639
3821,0.008031129
3822,0.001081621
3823,-0.020106189
3824,-0.016760274
3825,0.008814856
3826,-0.01767465
3827,0.007630395
3828,-0.000692867
3829,-0.006814447
3830,-0.004455733
3831,-0.011618637
3832,-0.004630035
3833,-0.002946242
3834,0.001008934
3835,0.02343051
3836,-0.007102333
3837,-0.008682764
3838,0.014605998
3839,-0.009073286
3840,-0.001216454
3841,0.020539874
3842,-0.026266484
3843,0.01554491
3844,-0.000646654
3845,0.027686446
3846,0.022569919
3847,-0.003088889
3848,0.001845851
3849,0.00556219
3850,-0.007447163
3851,0.008001642
3852,-0.02351313
3853,0.004952398
3854,-0.000765739
3855,0.001759242
3856,-0.010249878
3857,-0.006162008
3858,-0.016314255
3859,0.006004695
3860,-0.003007358
3861,0.001669651
3862,0.009313934
3863,-0.000699319
3864,-0.007664508
3865,0.001672283
3866,0.002624173
3867,-0.014297341
3868,-0.003220496
3869,0.004388437
3870,0.002491077
3871,0.009063246
3872,0.011976236
3873,-0.003434764
3874,-0.013099142
3875,-0.00585479
3876,0.008364411
3877,-0.005391988
3878,0.005852651
3879,-0.017491643
3880,-0.007784623
3881,-0.013006913
3882,0.00506814
3883,0.000403573
3884,-0.010703315
3885,0.017566615
3886,-0.00061193
3887,-0.001381856
3888,0.007097748
3889,0.004221077
3890,0.007828467
3891,-0.010664553
3892,-0.017971704
3893,0.00553152
3894,0.001170523
3895,0.002761373
3896,-0.002074675
3897,-0.001027518
3898,-0.001683779
3899,-0.003343571
3900,0.000452618
3901,-0.000359208
3902,-0.013860113
3903,-0.0086682
3904,-0.000602799
3905,-0.012154549
3906,-0.018693999
3907,-0.008384637
3908,-0.004855492
3909,-0.008843338
3910,-0.013531675
3911,0.00356355
3912,0.017745706
3913,-0.011544757
3914,-0.001815963
3915,-0.003062012
3916,-0.000695052
3917,0.019047004
3918,0.001457428
3919,0.011370917
3920,0.009874609
3921,0.009876877
3922,-0.005461749
3923,-0.012323367
3924,-0.000765447
3925,0.011881745
3926,0.003387978
3927,0.005526667
3928,0.000275334
3929,0.015948388
3930,-0.010758429
3931,0.01154154
3932,-0.002423834
3933,-0.003413168
3934,-0.004996765
3935,0.008010745
3936,-0.005000119
3937,-0.020447139
3938,0.010587355
3939,0.026627663
3940,-0.010161148
3941,0.019878552
3942,0.004704831
3943,0.006682446
3944,0.013915788
3945,-0.006113255
3946,-0.010724933
3947,-0.003081575
3948,0.006071272
3949,0.009570005
3950,-0.005740687
3951,-0.000149046
3952,0.00160818
3953,-0.003575557
3954,0.012241877
3955,-0.005757101
3956,0.003240469
3957,0.012642835
3958,0.000459419
3959,0.002183256
3960,0.004607217
3961,0.001915665
3962,0.004976997
3963,-0.009995855
3964,0.008485071
3965,0.000140116
3966,-0.01855701
3967,0.013536501
3968,0.007486576
3969,0.020102155
3970,-0.000522199
3971,-0.002767785
3972,0.007647048
3973,0.018119492
3974,-0.002064527
3975,0.014180397
3976,-0.014907138
3977,0.003576235
3978,0.004424101
3979,-0.006808437
3980,-0.001368547
3981,0.01207782
3982,-0.006899692
3983,0.004134535
3984,-0.019431791
3985,-0.000689468
3986,0.021659606
3987,0.018053486
3988,-0.007732543
3989,0.000660716
3990,0.009271833
3991,0.004400349
3992,-0.005283717
3993,-0.013145307
3994,0.011331589
3995,-0.004006872
3996,-0.010115045
3997,-0.012804493
3998,0.007189034
3999,0.002051467
4000,0.015164067
