Wavenumber (cm⁻¹),Intensity
200.0,19141.667877906984
201.00097751710655,21327.66892362295
202.0019550342131,23504.48637048678
203.00293255131965,25264.720299393026
204.0039100684262,25576.07086430699
205.00488758553274,24788.190885789623
206.0058651026393,23601.270760863765
207.00684261974584,22123.430949356654
208.0078201368524,20020.35972700562
209.00879765395894,18397.310573180494
210.00977517106548,17089.856745756693
211.01075268817203,16027.728602150544
212.01173020527858,15239.795265262603
213.01270772238513,14769.76935718646
214.01368523949168,14503.6926586688
215.01466275659823,14232.154757664624
216.01564027370478,14236.01905304631
217.01661779081132,14302.477471574457
218.01759530791787,14393.742230019589
219.01857282502445,14545.273033191474
220.019550342131,14720.015393936548
221.02052785923755,14923.827870130484
222.0215053763441,15163.68337131625
223.02248289345064,15396.288450845415
224.0234604105572,15365.483490782646
225.02443792766374,15133.449274124128
226.0254154447703,14776.946720689966
227.02639296187684,14542.777621983018
228.02737047898339,14381.46434056041
229.02834799608993,14254.062353764293
230.02932551319648,13999.440521788942
231.03030303030303,13940.559666688769
232.03128054740958,13969.956308120232
233.03225806451613,14038.280346344793
234.03323558162268,13934.60506740305
235.03421309872923,13859.691849674839
236.03519061583577,13821.608456271617
237.03616813294232,13837.670823431605
238.03714565004887,13855.742262035901
239.03812316715542,13879.3670530856
240.03910068426197,13911.238755178665
241.04007820136852,13960.587457847338
242.04105571847506,14033.858407003874
243.0420332355816,14097.973747703478
244.0430107526882,14147.24778274861
245.04398826979474,14246.614893935828
246.0449657869013,14282.179393311042
247.04594330400784,14316.529506032779
248.04692082111438,14401.28380675129
249.04789833822093,14859.077890048251
250.04887585532748,15185.798808686755
251.04985337243403,15480.524558242958
252.05083088954058,15983.57242659161
253.05180840664713,16578.18172100176
254.05278592375367,17185.86734707003
255.05376344086022,17744.12331792744
256.05474095796677,17986.31890137939
257.0557184750733,17524.56828257103
258.05669599217987,16822.686940671778
259.0576735092864,16090.53510015796
260.05865102639297,15571.374120180979
261.0596285434995,15277.208846136518
262.06060606060606,15054.813016780825
263.0615835777126,14739.948106498594
264.06256109481916,14644.556166473953
265.0635386119257,14612.928821583806
266.06451612903226,14608.080196476645
267.0654936461388,14564.846174873946
268.06647116324535,14588.837158244705
269.0674486803519,14527.609665826545
270.06842619745845,14394.225612380447
271.069403714565,14538.689034263223
272.07038123167155,14565.12528391648
273.0713587487781,14599.518806641385
274.07233626588464,14706.300341414335
275.0733137829912,14622.64093016056
276.07429130009774,14666.339703307443
277.0752688172043,14741.413021387216
278.07624633431084,14732.613219039025
279.0772238514174,14733.365430867181
280.07820136852393,14858.137835645257
281.0791788856305,15026.27967890392
282.08015640273703,14998.372748859863
283.0811339198436,15185.848618146267
284.08211143695013,15312.824494441491
285.0830889540567,15349.183087591411
286.0840664711632,15518.827846543438
287.0850439882698,15875.898008317852
288.0860215053764,16178.846488217803
289.0869990224829,16313.202201170594
290.0879765395895,16613.568895592147
291.088954056696,17025.748770926555
292.0899315738026,17350.664394405903
293.0909090909091,17362.423307969562
294.09188660801567,17467.833326873973
295.0928641251222,17356.7097097399
296.09384164222877,17138.763070523335
297.0948191593353,17077.028774314123
298.09579667644186,17157.935149173707
299.0967741935484,17291.315114597903
300.09775171065496,17474.749221972525
301.0987292277615,17771.879947109224
302.09970674486806,17977.205778851134
303.1006842619746,18199.854494316256
304.10166177908116,18515.610273273553
305.1026392961877,19323.01640288081
306.10361681329425,20375.80933528837
307.1045943304008,21435.39214332314
308.10557184750735,22328.832708628703
309.1065493646139,23786.97308090392
310.10752688172045,24131.41248704376
311.108504398827,23759.044484580896
312.10948191593354,23165.381586282227
313.1104594330401,21962.21489695789
314.11143695014664,20907.455944786845
315.1124144672532,20016.483100606583
316.11339198435974,19167.972357628834
317.1143695014663,18644.687853882064
318.11534701857283,18298.84182650295
319.1163245356794,18091.109994428585
320.11730205278593,17976.122886425183
321.1182795698925,18092.236915713824
322.119257086999,18361.103996878865
323.1202346041056,18768.887694305846
324.1212121212121,19446.77887943547
325.1221896383187,20110.45995385428
326.1231671554252,20963.8042997777
327.12414467253177,22165.07294280193
328.1251221896383,22506.600275462446
329.12609970674487,22540.491115840105
330.1270772238514,22169.132799591694
331.12805474095796,21223.519083210063
332.1290322580645,20275.135360167475
333.13000977517106,19270.149084334633
334.1309872922776,18377.81290106156
335.13196480938416,18001.061215656147
336.1329423264907,17572.593378133206
337.13391984359725,17288.50458350918
338.1348973607038,17118.68402246486
339.13587487781035,16824.669962089654
340.1368523949169,16641.90881172155
341.13782991202345,16681.567022009287
342.13880742913,16891.07180274658
343.13978494623655,16594.62277441591
344.1407624633431,16519.767319162944
345.14173998044964,16461.48552711563
346.1427174975562,16330.86619719836
347.14369501466274,16388.5722181402
348.1446725317693,16427.68828258264
349.14565004887584,16422.910114630846
350.1466275659824,16350.461224914126
351.14760508308893,16493.45265621475
352.1485826001955,16652.97727290789
353.14956011730203,16781.057340922103
354.1505376344086,16812.15279633518
355.1515151515151,16912.813859212973
356.1524926686217,17058.463592548887
357.1534701857282,17240.740083117867
358.1544477028348,17449.523855177074
359.1554252199413,17874.797046176278
360.15640273704787,18301.991337650026
361.1573802541544,18761.27776452247
362.15835777126097,19453.52183145635
363.1593352883675,20308.15322345486
364.16031280547406,21276.71786828857
365.1612903225806,22333.672572288124
366.16226783968716,23402.073445469206
367.1632453567937,24670.70923789865
368.16422287390026,26441.154197892818
369.1652003910068,28824.868509467386
370.16617790811335,31646.142178052833
371.1671554252199,35245.196072553284
372.16813294232645,38873.03791592464
373.169110459433,42086.5834856853
374.17008797653955,44351.211641511254
375.1710654936461,44874.87418920388
376.1720430107527,43656.07922529594
377.17302052785925,40598.80115171652
378.1739980449658,38059.6276427924
379.17497556207235,35241.90395531838
380.1759530791789,32693.96332245669
381.17693059628544,31072.661710241846
382.177908113392,30389.538532157978
383.17888563049854,29770.645611949654
384.1798631476051,29239.710982709264
385.18084066471164,28901.101377515937
386.1818181818182,28471.043868529392
387.18279569892474,27853.618363388177
388.1837732160313,26962.08639596626
389.18475073313783,25597.72505861834
390.1857282502444,24498.658067854347
391.18670576735093,23310.421003400268
392.1876832844575,22086.51968205659
393.188660801564,21147.963925482283
394.1896383186706,20293.500251278547
395.1906158357771,19595.140620846825
396.1915933528837,19104.104954085768
397.1925708699902,18973.86624368157
398.19354838709677,18604.394478262948
399.1945259042033,18370.46038875383
400.19550342130987,18324.630524697754
401.1964809384164,18119.22547286027
402.19745845552296,18037.041041182903
403.1984359726295,18042.844938439695
404.19941348973606,18101.1464444178
405.2003910068426,18011.095678938324
406.20136852394916,17875.46990934693
407.2023460410557,17868.91695904901
408.20332355816225,18055.134760624678
409.20430107526886,18071.519809267793
410.2052785923754,18083.581459637568
411.20625610948196,18141.596800377043
412.2072336265885,18266.66659388058
413.20821114369505,18187.66166699056
414.2091886608016,18458.990017388616
415.21016617790815,18722.041489846786
416.2111436950147,18702.500136473907
417.21212121212125,18674.922945012295
418.2130987292278,18852.176923312265
419.21407624633434,19059.2916511881
420.2150537634409,19131.642485136934
421.21603128054744,19218.837302402422
422.217008797654,19100.13436416955
423.21798631476054,19095.02250038818
424.2189638318671,19576.477010853294
425.21994134897363,19842.004913827608
426.2209188660802,20150.06002217455
427.22189638318673,20576.340630815634
428.2228739002933,21219.02641920398
429.2238514173998,21576.59619941934
430.2248289345064,22034.378272858597
431.2258064516129,22603.121352912865
432.2267839687195,23276.166683444968
433.227761485826,23612.238674661883
434.22873900293257,23563.00152974132
435.2297165200391,23262.558977838078
436.23069403714567,22938.361781999098
437.2316715542522,22295.58871351011
438.23264907135876,21755.457958369017
439.2336265884653,21251.494820035383
440.23460410557186,20575.704173684135
441.2355816226784,20091.475900443646
442.23655913978496,19721.984650497452
443.2375366568915,19452.48753720441
444.23851417399806,19275.316759344627
445.2394916911046,18969.239211148077
446.24046920821115,18766.842672347662
447.2414467253177,18651.24891738335
448.24242424242425,18513.492849210128
449.2434017595308,18241.70472408155
450.24437927663735,18192.83046987354
451.2453567937439,18271.11390742905
452.24633431085044,18099.667496496073
453.247311827957,18256.77426592998
454.24828934506354,18217.50751050447
455.2492668621701,18038.47106959102
456.25024437927664,18098.409843070458
457.2512218963832,18069.355968415075
458.25219941348973,18029.82038123167
459.2531769305963,18002.59805974561
460.25415444770283,18015.33504910999
461.2551319648094,18063.893339420865
462.2561094819159,18140.70720836491
463.2570869990225,18193.899685510412
464.258064516129,18073.932342636224
465.2590420332356,18044.345406218767
466.2600195503421,18148.60408580184
467.26099706744867,18278.669213047433
468.2619745845552,18091.83008129366
469.26295210166177,18111.860445703867
470.2639296187683,18205.642993752386
471.26490713587486,18285.601982000207
472.2658846529814,18164.04399266643
473.26686217008796,18279.013725572153
474.2678396871945,18271.733718184896
475.26881720430106,18184.522203131426
476.2697947214076,18319.68795937987
477.27077223851416,18353.368571615043
478.2717497556207,18420.00991376876
479.27272727272725,18503.120984791654
480.2737047898338,18494.10993437509
481.27468230694035,18588.54349437414
482.2756598240469,18662.605843542995
483.27663734115345,18687.525955574343
484.27761485826,18638.67945511494
485.27859237536654,18643.63371751004
486.2795698924731,18627.766468080987
487.28054740957964,18602.69919479597
488.2815249266862,18623.740764224633
489.2825024437928,18658.222477311836
490.28347996089934,18657.912668283865
491.2844574780059,18638.455600820496
492.28543499511244,18648.984289956104
493.286412512219,18734.32116655275
494.28739002932554,18715.63962888133
495.2883675464321,18636.41718372177
496.28934506353863,18625.880578278542
497.2903225806452,18587.755323793353
498.29130009775173,18652.450126400545
499.2922776148583,18768.111729470304
500.2932551319648,18818.53691266289
501.2942326490714,18764.480754534346
502.2952101661779,18815.469441373618
503.2961876832845,18867.34619331007
504.297165200391,18727.254531773717
505.29814271749757,18884.26096691079
506.2991202346041,19094.88131883166
507.30009775171067,19214.534535502713
508.3010752688172,19059.26242065034
509.30205278592376,19260.80948132707
510.3030303030303,19390.050657174153
511.30400782013686,19485.361676176854
512.3049853372434,19611.237613945515
513.3059628543499,19779.601114826215
514.3069403714564,20003.355752876014
515.307917888563,20291.89349557023
516.3088954056695,20653.68686745914
517.3098729227761,21068.560744180013
518.3108504398826,21660.710092882535
519.3118279569892,22269.9455716116
520.3128054740957,22779.720170811324
521.3137829912023,23808.607385079096
522.3147605083088,24767.053684561237
523.3157380254154,25529.77124330442
524.3167155425219,25986.68025009684
525.3176930596285,25842.38839668751
526.318670576735,25121.410142882647
527.3196480938416,24271.48834172526
528.3206256109481,23523.033884800596
529.3216031280547,22623.287301499495
530.3225806451612,21852.460012172884
531.3235581622678,21185.622343205985
532.3245356793743,20637.655534775637
533.3255131964809,20374.757288773322
534.3264907135874,20153.00233452349
535.327468230694,19985.330428837646
536.3284457478005,19868.293582939827
537.3294232649071,19760.93798820483
538.3304007820136,19704.61220943249
539.3313782991202,19699.46742385452
540.3323558162267,19696.94174765885
541.3333333333333,19524.56797583083
542.3343108504398,19681.653090040174
543.3352883675464,19605.564297999288
544.3362658846529,19386.772554747968
545.3372434017595,19557.76342312747
546.338220918866,19677.462282776025
547.3391984359725,19673.102716196176
548.3401759530791,19638.52635968784
549.3411534701856,19775.57396225689
550.3421309872922,19678.53118072532
551.3431085043987,19770.00749454446
552.3440860215054,19920.073300473377
553.345063538612,19892.81521377456
554.3460410557185,19845.689942081557
555.347018572825,19977.832406505036
556.3479960899316,20177.389603513137
557.3489736070381,20317.160198108162
558.3499511241447,20414.151206578743
559.3509286412512,20444.524945940342
560.3519061583578,20407.609384164218
561.3528836754643,20316.243126277437
562.3538611925709,20375.391797742825
563.3548387096774,20333.504252199415
564.355816226784,20316.50906778663
565.3567937438905,20395.174510889432
566.3577712609971,20567.442817472584
567.3587487781036,20473.256081319934
568.3597262952102,20580.658416689086
569.3607038123167,20976.25481847751
570.3616813294233,21196.33327182164
571.3626588465298,21504.67777238833
572.3636363636364,21938.001998759406
573.3646138807429,22452.574701441965
574.3655913978495,22882.43302821151
575.366568914956,22906.98185692623
576.3675464320626,22796.539079175916
577.3685239491691,22555.330413399945
578.3695014662757,22100.064253379584
579.3704789833822,21554.75400537266
580.3714565004888,21568.77542045481
581.3724340175953,21609.410637406538
582.3734115347019,20867.044332926253
583.3743890518084,21030.218539276226
584.375366568915,20981.983982386864
585.3763440860215,20878.872747609832
586.377321603128,20890.541200563333
587.3782991202346,21070.808428188142
588.3792766373411,21255.0193912633
589.3802541544477,21344.83547109491
590.3812316715542,21289.5779043966
591.3822091886608,21177.681558377837
592.3831867057673,20939.412764961027
593.3841642228739,20723.163990945886
594.3851417399804,20598.31394281339
595.386119257087,20613.537935469005
596.3870967741935,20522.837924690302
597.3880742913001,20426.843208934242
598.3890518084066,20371.1985944286
599.3900293255132,20414.61999357249
600.3910068426197,20409.410885999485
601.3919843597263,20395.6189714199
602.3929618768328,20361.882742616697
603.3939393939394,20281.07267649842
604.3949169110459,20387.922021808896
605.3958944281525,20470.07237349045
606.396871945259,20485.46588107942
607.3978494623656,20405.72437740052
608.3988269794721,20395.051349799993
609.3998044965787,20389.94929563634
610.4007820136852,20380.777112131345
611.4017595307918,20366.545231027823
612.4027370478983,20394.011077533796
613.4037145650049,20395.227350213387
614.4046920821114,20434.78304708175
615.405669599218,20497.529225675324
616.4066471163245,20413.605805795964
617.4076246334312,20575.537014792506
618.4086021505377,20661.752827604305
619.4095796676443,20640.502439319
620.4105571847508,20599.272244106374
621.4115347018574,20470.879346353468
622.4125122189639,20628.061449262404
623.4134897360705,20777.02217098339
624.414467253177,20475.964810876547
625.4154447702836,20820.157874236105
626.4164222873901,20829.54116093214
627.4173998044967,20762.71021617306
628.4183773216032,20815.918839196558
629.4193548387098,20695.86271224031
630.4203323558163,20637.39927469723
631.4213098729228,20713.915969373633
632.4222873900294,20894.855227401542
633.423264907136,20858.91485818534
634.4242424242425,20907.342970994356
635.425219941349,20878.16459028292
636.4261974584556,20828.7264663504
637.4271749755621,21003.97405917716
638.4281524926687,20890.96260997067
639.4291300097752,20902.95009281929
640.4301075268818,21058.26954062676
641.4310850439883,21318.462473207972
642.4320625610949,21109.110689041107
643.4330400782014,21002.933400196398
644.434017595308,20988.978821459907
645.4349951124145,21049.12808615315
646.4359726295211,21141.797007017638
647.4369501466276,21142.458566067664
648.4379276637342,21164.888365506078
649.4389051808407,21242.334821314966
650.4398826979473,21312.84778576658
651.4408602150538,21214.744306673903
652.4418377321604,21335.04441789831
653.4428152492669,21521.24923542593
654.4437927663735,21295.147882021298
655.44477028348,21419.984003176003
656.4457478005866,21335.56651457518
657.4467253176931,21282.783515541025
658.4477028347997,21549.57394197267
659.4486803519062,21636.315091844634
660.4496578690128,21610.93188316236
661.4506353861193,21581.746212870843
662.4516129032259,21611.612062785814
663.4525904203324,21691.383451122278
664.453567937439,21830.766886158242
665.4545454545455,21789.385108756276
666.455522971652,21667.518692482725
667.4565004887586,21930.246482851442
668.4574780058651,21883.47984770523
669.4584555229717,21977.47476948077
670.4594330400782,22119.531184896274
671.4604105571848,22117.90315378677
672.4613880742913,22089.479386992494
673.4623655913979,22281.67588325654
674.4633431085044,22456.696175980087
675.464320625611,22461.10956074796
676.4652981427175,22421.900763994938
677.4662756598241,22660.780964093134
678.4672531769306,22834.368780716337
679.4682306940372,22897.048648193784
680.4692082111437,23064.775857055596
681.4701857282503,23177.889259774798
682.4711632453568,23437.19053694317
683.4721407624634,23765.08612143604
684.4731182795699,24011.291198664392
685.4740957966765,24399.423810393233
686.475073313783,24765.621495601175
687.4760508308896,25224.460808777072
688.4770283479961,25870.92457929166
689.4780058651027,26820.31325513198
690.4789833822092,27937.908441236243
691.4799608993158,29324.929295435813
692.4809384164223,30974.226957799707
693.4819159335289,32765.814892574737
694.4828934506354,36473.165504173434
695.483870967742,40122.73366609558
696.4848484848485,44019.08241771047
697.485826001955,48829.995090591496
698.4868035190616,52250.57953896412
699.4877810361681,54584.77453695965
700.4887585532747,55021.785513632916
701.4897360703812,53152.20542770505
702.4907135874878,49351.88400682595
703.4916911045943,45068.59600528361
704.4926686217009,41214.00702411553
705.4936461388074,37964.8450458272
706.494623655914,35131.700508203394
707.4956011730205,32724.955921358847
708.4965786901271,30594.695556555478
709.4975562072336,28954.572405227205
710.4985337243402,27983.873773675718
711.4995112414467,26834.71762643468
712.5004887585533,26265.5200247698
713.5014662756598,25779.279964818452
714.5024437927664,25237.92806198183
715.5034213098729,25117.440027515295
716.5043988269795,24537.40662901417
717.505376344086,24250.727996814017
718.5063538611926,24203.11174115045
719.5073313782991,24053.931308099058
720.5083088954057,23875.33359279775
721.5092864125122,23719.899182131445
722.5102639296188,23612.613983401083
723.5112414467253,23564.66206667497
724.5122189638319,23530.652019761696
725.5131964809384,23400.793737847132
726.514173998045,23345.775057839575
727.5151515151515,23339.07945763665
728.516129032258,23169.67136161939
729.5171065493646,23318.030891504663
730.5180840664711,23430.924580098235
731.5190615835777,23445.179720262273
732.5200391006842,23333.05299593129
733.5210166177908,23146.62673501732
734.5219941348973,23105.0927756723
735.5229716520039,23148.548179950845
736.5239491691104,23231.239819042155
737.524926686217,23290.84946236559
738.5259042033235,23246.18210568685
739.5268817204301,23242.073314538997
740.5278592375366,23235.107478459824
741.5288367546432,23133.40756713241
742.5298142717497,23339.491173595536
