Raman Shift,Intensity 
400,3.598382809
401,3.604497583
402,3.610384576
403,3.622402225
404,3.592494976
405,3.601062158
406,3.600482986
407,3.581244734
408,3.586377263
409,3.584026675
410,3.606763763
411,3.607337997
412,3.60117526
413,3.606195712
414,3.586201775
415,3.58932925
416,3.618782169
417,3.593161139
418,3.599810735
419,3.591700596
420,3.607657029
421,3.585696067
422,3.591782794
423,3.597935431
424,3.596425859
425,3.611580595
426,3.604034845
427,3.587576686
428,3.60225032
429,3.595331194
430,3.593490017
431,3.605437582
432,3.619060423
433,3.580883883
434,3.620108331
435,3.594768041
436,3.605189236
437,3.591083447
438,3.576944051
439,3.606613323
440,3.604427688
441,3.604559172
442,3.59552073
443,3.59760438
444,3.602134254
445,3.600529919
446,3.603621273
447,3.58397952
448,3.594806334
449,3.589820718
450,3.603941303
451,3.625950639
452,3.603988316
453,3.594219271
454,3.614786474
455,3.612586571
456,3.599663086
457,3.599196786
458,3.604952915
459,3.618283469
460,3.594855958
461,3.604380515
462,3.596829843
463,3.592798461
464,3.603190353
465,3.603227157
466,3.585235982
467,3.623618579
468,3.614353493
469,3.594049447
470,3.609428429
471,3.594978132
472,3.603493061
473,3.594577237
474,3.600291666
475,3.592693488
476,3.595446413
477,3.60029889
478,3.596574828
479,3.592865509
480,3.596974317
481,3.612650401
482,3.606456068
483,3.610412244
484,3.597149403
485,3.606342484
486,3.600775981
487,3.59507009
488,3.58704715
489,3.614739597
490,3.59974594
491,3.585876391
492,3.593441323
493,3.597072416
494,3.606069096
495,3.613958541
496,3.626787594
497,3.605820995
498,3.61731021
499,3.604388313
500,3.5813203
501,3.592656654
502,3.585674399
503,3.592648641
504,3.619565826
505,3.594942606
506,3.591116386
507,3.594166734
508,3.614713093
509,3.606552409
510,3.592763286
511,3.611111215
512,3.598114272
513,3.603624379
514,3.62019542
515,3.601357356
516,3.601622351
517,3.603027321
518,3.578599071
519,3.585106978
520,3.605742005
521,3.591755597
522,3.617537435
523,3.606409082
524,3.59669142
525,3.60529662
526,3.609723822
527,3.599611602
528,3.615396833
529,3.615973747
530,3.590705755
531,3.590797434
532,3.598757581
533,3.574541648
534,3.581664391
535,3.607624571
536,3.619762507
537,3.600950058
538,3.588758091
539,3.594372464
540,3.593268523
541,3.595581106
542,3.605736491
543,3.586313192
544,3.617521767
545,3.600183727
546,3.600126142
547,3.577057711
548,3.601131648
549,3.6117539
550,3.605857094
551,3.59403319
552,3.615665313
553,3.601480851
554,3.619394281
555,3.59305346
556,3.605893472
557,3.611458197
558,3.608369382
559,3.607921145
560,3.604723173
561,3.597889329
562,3.592110192
563,3.621337472
564,3.598037752
565,3.587041315
566,3.607158938
567,3.594639611
568,3.611714177
569,3.603759007
570,3.614530647
571,3.610009004
572,3.623533229
573,3.593309649
574,3.58036981
575,3.58868811
576,3.600500695
577,3.584288006
578,3.595100138
579,3.616573274
580,3.60033957
581,3.604405437
582,3.586594941
583,3.619655923
584,3.579502918
585,3.592895246
586,3.608617687
587,3.609129062
588,3.601717344
589,3.595632138
590,3.584258517
591,3.587142047
592,3.590663544
593,3.603788903
594,3.596851054
595,3.598710031
596,3.60035857
597,3.623158937
598,3.607422209
599,3.608894472
600,3.587005541
601,3.601004218
602,3.590735462
603,3.596148342
604,3.607328483
605,3.600003772
606,3.592107196
607,3.595238266
608,3.599949318
609,3.597071491
610,3.595926835
611,3.601316699
612,3.591693149
613,3.594497228
614,3.601200449
615,3.614826734
616,3.595050677
617,3.602978654
618,3.581204929
619,3.616777171
620,3.600829844
621,3.598897666
622,3.605804489
623,3.59144197
624,3.59714201
625,3.618828198
626,3.598833274
627,3.582386938
628,3.599236609
629,3.602899338
630,3.607640277
631,3.603221753
632,3.604654798
633,3.591163902
634,3.605381575
635,3.607630406
636,3.593470748
637,3.598231703
638,3.611556082
639,3.597287613
640,3.621757813
641,3.593286897
642,3.586720441
643,3.594199105
644,3.605398527
645,3.593564787
646,3.592841013
647,3.606051412
648,3.599146982
649,3.601184032
650,3.60323722
651,3.612094318
652,3.600362389
653,3.597879301
654,3.584747713
655,3.607009815
656,3.596549932
657,3.608836252
658,3.592761854
659,3.599123584
660,3.599390522
661,3.602360372
662,3.614169373
663,3.575197183
664,3.5997563
665,3.610284434
666,3.595055763
667,3.613163279
668,3.595360837
669,3.595635948
670,3.59392139
671,3.598133146
672,3.602942005
673,3.58981556
674,3.606823113
675,3.59934425
676,3.595176415
677,3.615253708
678,3.602261757
679,3.606103268
680,3.604954353
681,3.60744661
682,3.605169081
683,3.60162774
684,3.618211841
685,3.618659287
686,3.619950697
687,3.583353505
688,3.615826928
689,3.624794384
690,3.591961252
691,3.603217163
692,3.59824703
693,3.603535197
694,3.588654282
695,3.597602806
696,3.586888401
697,3.602564125
698,3.595452947
699,3.601337543
700,3.590398814
701,3.609457203
702,3.603646
703,3.589127236
704,3.595096767
705,3.589313389
706,3.607948863
707,3.608378304
708,3.589035847
709,3.600535768
710,3.583134974
711,3.588004639
712,3.612458755
713,3.591972988
714,3.608665113
715,3.583841579
716,3.578800869
717,3.58654581
718,3.603075686
719,3.613545461
720,3.599330326
721,3.605855591
722,3.605395742
723,3.590516416
724,3.599147577
725,3.584131372
726,3.587753718
727,3.592631219
728,3.619359588
729,3.590795903
730,3.60079229
731,3.595751194
732,3.607527733
733,3.614602024
734,3.599091172
735,3.596622952
736,3.601958015
737,3.596022768
738,3.591608787
739,3.597161153
740,3.606028296
741,3.591335063
742,3.593060785
743,3.598130239
744,3.589509964
745,3.584149706
746,3.589987174
747,3.58887936
748,3.608523196
749,3.600563432
750,3.604691792
751,3.589783858
752,3.599797892
753,3.581404924
754,3.598605694
755,3.602949042
756,3.601340229
757,3.605244036
758,3.595068396
759,3.599542506
760,3.590780152
761,3.603917172
762,3.603128217
763,3.599700225
764,3.62436644
765,3.61981107
766,3.615669021
767,3.605127758
768,3.599585653
769,3.613982242
770,3.585525925
771,3.597345363
772,3.619687469
773,3.608083746
774,3.580743676
775,3.61018496
776,3.604517097
777,3.601990303
778,3.622051484
779,3.587253761
780,3.587723324
781,3.59149671
782,3.591412839
783,3.603124282
784,3.596205238
785,3.587925637
786,3.620108113
787,3.607178006
788,3.598431677
789,3.604527282
790,3.605067702
791,3.603808419
792,3.580946983
793,3.590255461
794,3.583107559
795,3.58701003
796,3.605819794
797,3.6185299
798,3.603494322
799,3.592141626
800,3.576837396
801,3.581842925
802,3.609985723
803,3.60013777
804,3.597666537
805,3.593896191
806,3.608680667
807,3.610875589
808,3.611122515
809,3.601856892
810,3.586949165
811,3.608445272
812,3.611434777
813,3.598749083
814,3.611774058
815,3.612943015
816,3.592280615
817,3.602747306
818,3.581303585
819,3.603201007
820,3.5909365
821,3.59430405
822,3.605862088
823,3.610197638
824,3.612400804
825,3.598041478
826,3.589404371
827,3.596237158
828,3.603546664
829,3.604224931
830,3.603903168
831,3.598816073
832,3.611659592
833,3.597458563
834,3.592755436
835,3.601597461
836,3.583875212
837,3.615566904
838,3.591657968
839,3.610607645
840,3.597678016
841,3.600964909
842,3.585003773
843,3.604550981
844,3.605446689
845,3.597753615
846,3.617414376
847,3.598131294
848,3.615698089
849,3.589504572
850,3.610103004
851,3.598026611
852,3.595550377
853,3.597065598
854,3.59633389
855,3.593943136
856,3.602939328
857,3.596778789
858,3.610409038
859,3.589515914
860,3.602317464
861,3.591684669
862,3.60016462
863,3.603311826
864,3.570649559
865,3.595496577
866,3.602663369
867,3.593783311
868,3.61366857
869,3.594485356
870,3.611591079
871,3.598650747
872,3.617757227
873,3.59924788
874,3.594588362
875,3.590688906
876,3.590229906
877,3.570291401
878,3.589487115
879,3.597779953
880,3.592769862
881,3.626422763
882,3.594942143
883,3.602855016
884,3.623405712
885,3.60340452
886,3.608720674
887,3.618356566
888,3.606368094
889,3.601168091
890,3.595770564
891,3.605715368
892,3.600159854
893,3.593288979
894,3.601965329
895,3.605749053
896,3.607756771
897,3.597427095
898,3.60766718
899,3.60064689
900,3.587981073
901,3.604237812
902,3.591522046
903,3.606493863
904,3.604019588
905,3.589196871
906,3.612382735
907,3.597857417
908,3.608073097
909,3.594935563
910,3.596534397
911,3.613329894
912,3.603461376
913,3.598120116
914,3.599718827
915,3.581737221
916,3.604338122
917,3.591431737
918,3.611894201
919,3.599429533
920,3.607033336
921,3.593139727
922,3.618854955
923,3.615556194
924,3.602329489
925,3.597753396
926,3.599317874
927,3.594278525
928,3.590637432
929,3.604203165
930,3.592240328
931,3.58540209
932,3.610708242
933,3.609660102
934,3.605548297
935,3.594018333
936,3.601583497
937,3.610955437
938,3.609877354
939,3.611836139
940,3.596549133
941,3.602676342
942,3.596430824
943,3.594050685
944,3.590051629
945,3.599752326
946,3.579327153
947,3.611231347
948,3.591250096
949,3.578428604
950,3.591666761
951,3.599909083
952,3.593847895
953,3.619981693
954,3.595881043
955,3.600225744
956,3.603338344
957,3.591114105
958,3.580134121
959,3.594873427
960,3.589584936
961,3.607736592
962,3.607914216
963,3.610790646
964,3.607954624
965,3.591304656
966,3.605058315
967,3.606490522
968,3.590944497
969,3.590117376
970,3.599149084
971,3.58215798
972,3.602752517
973,3.605808982
974,3.599367144
975,3.593847471
976,3.59785709
977,3.597406642
978,3.607459192
979,3.613791344
980,3.618401135
981,3.59887937
982,3.611321017
983,3.589669413
984,3.595381025
985,3.627401507
986,3.587788357
987,3.593112188
988,3.617956218
989,3.611745824
990,3.587572278
991,3.57290139
992,3.600085125
993,3.58394638
994,3.602267567
995,3.602712782
996,3.611371352
997,3.596316361
998,3.60583008
999,3.595211586
1000,3.604251964
1001,3.581902473
1002,3.599806172
1003,3.594307728
1004,3.60479255
1005,3.622364949
1006,3.605480178
1007,3.591501632
1008,3.589512016
1009,3.604979871
1010,3.593054065
1011,3.595441746
1012,3.595000906
1013,3.60683481
1014,3.581223482
1015,3.607452317
1016,3.603897582
1017,3.596128895
1018,3.592876012
1019,3.607084776
1020,3.615471557
1021,3.605747103
1022,3.604711083
1023,3.595226443
1024,3.60587754
1025,3.596656022
1026,3.580494349
1027,3.603340523
1028,3.586691248
1029,3.602795512
1030,3.601587888
1031,3.595562137
1032,3.616865775
1033,3.606052615
1034,3.593078978
1035,3.605677067
1036,3.589835416
1037,3.596505447
1038,3.607189831
1039,3.607474051
1040,3.599882668
1041,3.60068908
1042,3.593905337
1043,3.606624088
1044,3.597573995
1045,3.597489751
1046,3.597414895
1047,3.591271532
1048,3.584575916
1049,3.601986651
1050,3.61326754
1051,3.605844398
1052,3.603400304
1053,3.610932578
1054,3.596317685
1055,3.608393912
1056,3.579160312
1057,3.596432425
1058,3.598634854
1059,3.594949567
1060,3.600082455
1061,3.609432305
1062,3.588811222
1063,3.595455699
1064,3.601262468
1065,3.607199889
1066,3.599802133
1067,3.598271836
1068,3.596582941
1069,3.601356598
1070,3.615126398
1071,3.5889444
1072,3.604777498
1073,3.604465199
1074,3.604780032
1075,3.593657942
1076,3.625063021
1077,3.639208701
1078,3.642512104
1079,3.649449716
1080,3.674300189
1081,3.698504485
1082,3.72293499
1083,3.777578319
1084,3.82150418
1085,3.864942433
1086,3.917101215
1087,3.986562674
1088,4.064822351
1089,4.123942833
1090,4.214058568
1091,4.270003921
1092,4.370346852
1093,4.422585908
1094,4.470269564
1095,4.531338427
1096,4.570362739
1097,4.583210156
1098,4.589024927
1099,4.597917509
1100,4.562627521
1101,4.524454648
1102,4.483441696
1103,4.417256484
1104,4.351312975
1105,4.304970635
1106,4.210785446
1107,4.109285687
1108,4.053589139
1109,3.988881656
1110,3.918393354
1111,3.866532293
1112,3.827952659
1113,3.776834385
1114,3.744494093
1115,3.706177978
1116,3.664094639
1117,3.661437528
1118,3.645877423
1119,3.615727599
1120,3.628587011
1121,3.624234606
1122,3.618400229
1123,3.621655478
1124,3.597022346
1125,3.604650978
1126,3.598621979
1127,3.597401315
1128,3.594068961
1129,3.612082956
1130,3.592365933
1131,3.59799027
1132,3.603894496
1133,3.598342026
1134,3.608665769
1135,3.59500538
1136,3.606927129
1137,3.594991305
1138,3.599333855
1139,3.58866258
1140,3.590393201
1141,3.602234908
1142,3.620225566
1143,3.586267865
1144,3.595351207
1145,3.60660384
1146,3.604660445
1147,3.61667795
1148,3.614311139
1149,3.589624443
1150,3.590181116
1151,3.595801003
1152,3.607907661
1153,3.596078182
1154,3.595721875
1155,3.60373319
1156,3.605725817
1157,3.586024699
1158,3.584984644
1159,3.591203656
1160,3.612978897
1161,3.606274843
1162,3.607611305
1163,3.60489629
1164,3.608511576
1165,3.616770134
1166,3.618492791
1167,3.60745521
1168,3.596119574
1169,3.605554991
1170,3.588928205
1171,3.594134208
1172,3.59398248
1173,3.606382861
1174,3.608290711
1175,3.594377072
1176,3.605466455
1177,3.594841959
1178,3.616418285
1179,3.612569752
1180,3.59204713
1181,3.610531717
1182,3.609772031
1183,3.606784571
1184,3.616175949
1185,3.592922955
1186,3.606340585
1187,3.60124941
1188,3.613395289
1189,3.600672067
1190,3.602974294
1191,3.596752506
1192,3.60776775
1193,3.603786081
1194,3.61514172
1195,3.580421115
1196,3.601663161
1197,3.609980353
1198,3.595986382
1199,3.585645783
1200,3.607855374
1201,3.602936812
1202,3.591739293
1203,3.611925211
1204,3.597127808
1205,3.603489963
1206,3.599267035
1207,3.597880438
1208,3.615399632
1209,3.597468261
1210,3.5816776
1211,3.595656333
1212,3.625826764
1213,3.598537876
1214,3.608958784
1215,3.608151623
1216,3.591822515
1217,3.607309525
1218,3.597786817
1219,3.582951205
1220,3.601439901
1221,3.60370827
1222,3.598224896
1223,3.595460371
1224,3.602111429
1225,3.597374793
1226,3.587463083
1227,3.599392016
1228,3.595503397
1229,3.598702345
1230,3.606927989
1231,3.61189985
1232,3.593973007
1233,3.598917741
1234,3.613675769
1235,3.609526555
1236,3.607218094
1237,3.610904392
1238,3.607409994
1239,3.594433392
1240,3.616780801
1241,3.597032322
1242,3.601226141
1243,3.583555243
1244,3.595496935
1245,3.603264606
1246,3.593981687
1247,3.586355322
1248,3.598566169
1249,3.617896411
1250,3.602105861
1251,3.609433054
1252,3.608002608
1253,3.606672943
1254,3.612709
1255,3.599091185
1256,3.583229789
1257,3.610356111
1258,3.599181165
1259,3.590430224
1260,3.606131103
1261,3.600084795
1262,3.60829814
1263,3.601427152
1264,3.618773811
1265,3.594463818
1266,3.599897925
1267,3.622937134
1268,3.595561533
1269,3.598071404
1270,3.595157628
1271,3.589051474
1272,3.582795224
1273,3.610024913
1274,3.606057829
1275,3.598572325
1276,3.61603936
1277,3.602482787
1278,3.610495975
1279,3.606445299
1280,3.587975359
1281,3.593953761
1282,3.615085021
1283,3.605755076
1284,3.610845482
1285,3.608097032
1286,3.582672823
1287,3.601244975
1288,3.595269471
1289,3.603862775
1290,3.596291653
1291,3.59210851
1292,3.591103008
1293,3.60781268
1294,3.604376288
1295,3.586847135
1296,3.602841732
1297,3.578743764
1298,3.580742342
1299,3.593619142
1300,3.60017931
1301,3.588060672
1302,3.602818539
1303,3.604031642
1304,3.607324862
1305,3.593746735
1306,3.610683218
1307,3.593196998
1308,3.584760995
1309,3.597310061
1310,3.606925802
1311,3.605719008
1312,3.577214022
1313,3.608345691
1314,3.585094803
1315,3.594135246
1316,3.582902237
1317,3.593891404
1318,3.593846829
1319,3.600936381
1320,3.580545804
1321,3.584416804
1322,3.587310759
1323,3.590836087
1324,3.595934586
1325,3.613136191
1326,3.617808473
1327,3.603040506
1328,3.611421044
1329,3.609134518
1330,3.590367693
1331,3.597889481
1332,3.595845135
1333,3.603790677
1334,3.607320658
1335,3.607521321
1336,3.594697654
1337,3.619493427
1338,3.592007893
1339,3.604801549
1340,3.599227663
1341,3.606532942
1342,3.592047189
1343,3.597652995
1344,3.580370693
1345,3.607436919
1346,3.592917255
1347,3.591672315
1348,3.603347606
1349,3.599947791
1350,3.593911582
1351,3.603336961
1352,3.600142495
1353,3.583890505
1354,3.608468875
1355,3.588615072
1356,3.606752919
1357,3.588633277
1358,3.590078917
1359,3.620600971
1360,3.592373091
1361,3.610941237
1362,3.60276006
1363,3.611012266
1364,3.594557846
1365,3.603889566
1366,3.606217885
1367,3.60180231
1368,3.610322218
1369,3.602727113
1370,3.604433158
1371,3.599905121
1372,3.600355525
1373,3.600771301
1374,3.589794652
1375,3.603862829
1376,3.613184239
1377,3.604219666
1378,3.577992924
1379,3.591849049
1380,3.605748085
1381,3.602243814
1382,3.599460734
1383,3.593935634
1384,3.612792698
1385,3.583494008
1386,3.599957684
1387,3.620906648
1388,3.589973598
1389,3.601061451
1390,3.612522741
1391,3.601388563
1392,3.600482189
1393,3.593554742
1394,3.603256438
1395,3.60153772
1396,3.594965061
1397,3.617460037
1398,3.613524921
1399,3.623877655
1400,3.595561081
1401,3.599570572
1402,3.621449287
1403,3.60968039
1404,3.605061745
1405,3.60574452
1406,3.584138222
1407,3.599404301
1408,3.600059346
1409,3.609750066
1410,3.609629359
1411,3.597412102
1412,3.617460459
1413,3.603891661
1414,3.604276647
1415,3.61384305
1416,3.601104768
1417,3.601977121
1418,3.621198529
1419,3.633719099
1420,3.62838411
1421,3.619145515
1422,3.620590733
1423,3.612067625
1424,3.633449955
1425,3.640118961
1426,3.667581889
1427,3.654969886
1428,3.685517185
1429,3.700748209
1430,3.696446022
1431,3.727586908
1432,3.728967687
1433,3.782474694
1434,3.810784235
1435,3.830062182
1436,3.853515975
1437,3.864153215
1438,3.889349138
1439,3.920010366
1440,3.938742587
1441,3.967174405
1442,3.960708716
1443,3.985544087
1444,3.997182742
1445,3.976350222
1446,3.990703333
1447,4.007485577
1448,3.987777451
1449,3.977481716
1450,3.970282379
1451,3.943653203
1452,3.926105901
1453,3.906220739
1454,3.89566491
1455,3.880270172
1456,3.84116762
1457,3.832552013
1458,3.793418773
1459,3.773933225
1460,3.732426925
1461,3.719616225
1462,3.706230088
1463,3.696626971
1464,3.67139423
1465,3.661174008
1466,3.670803687
1467,3.647374562
1468,3.632905535
1469,3.6388883
1470,3.640627926
1471,3.60528443
1472,3.627487863
1473,3.621549955
1474,3.62275525
1475,3.614348771
1476,3.607434548
1477,3.602193294
1478,3.602573334
1479,3.591842095
1480,3.61826298
1481,3.597695647
1482,3.595166409
1483,3.60605287
1484,3.601746214
1485,3.583233371
1486,3.598522808
1487,3.59707089
1488,3.614108108
1489,3.600957775
1490,3.610259215
1491,3.611583701
1492,3.613854472
1493,3.594257546
1494,3.613812469
1495,3.611082696
1496,3.605737542
1497,3.59474045
1498,3.593183684
1499,3.605542602
1500,3.61221218
1501,3.594364196
1502,3.596051379
1503,3.617172566
1504,3.59744447
1505,3.606951093
1506,3.587968636
1507,3.608569603
1508,3.598588685
1509,3.60835519
1510,3.604961515
1511,3.622530818
1512,3.600611576
1513,3.596044753
1514,3.5926109
1515,3.601322031
1516,3.611689595
1517,3.609858047
1518,3.594554299
1519,3.606331956
1520,3.598286957
1521,3.613351324
1522,3.601801915
1523,3.593631571
1524,3.611592591
1525,3.602745676
1526,3.593061986
1527,3.592139656
1528,3.619805236
1529,3.600232061
1530,3.588156389
1531,3.574738453
1532,3.591328711
1533,3.585339355
1534,3.589357795
1535,3.607062572
1536,3.601225093
1537,3.628571748
1538,3.580781066
1539,3.615964234
1540,3.612452905
1541,3.612188444
1542,3.588357024
1543,3.60672984
1544,3.60368314
1545,3.607375727
1546,3.607035147
1547,3.584797608
1548,3.592321348
1549,3.583918724
1550,3.593303325
1551,3.601676103
1552,3.604721277
1553,3.599602245
1554,3.597186344
1555,3.598676518
1556,3.591406858
1557,3.595111357
1558,3.606209785
1559,3.607148619
1560,3.605135128
1561,3.587889688
1562,3.605186111
1563,3.579286237
1564,3.612265465
1565,3.586458433
1566,3.593752091
1567,3.595779219
1568,3.587819602
1569,3.594969541
1570,3.602597719
1571,3.589888363
1572,3.580213234
1573,3.595404416
1574,3.602295477
1575,3.613058264
1576,3.593858105
1577,3.618558865
1578,3.603071525
1579,3.600837752
1580,3.589641739
1581,3.590444191
1582,3.608700635
1583,3.62201401
1584,3.59721208
1585,3.614162461
1586,3.602028523
1587,3.596114496
1588,3.602649586
1589,3.583202889
1590,3.595727012
1591,3.600348247
1592,3.610340508
1593,3.605640763
1594,3.606058008
1595,3.600946199
1596,3.607799876
1597,3.622524777
1598,3.603425882
1599,3.609792135
1600,3.596440285
1601,3.584577706
1602,3.57814496
1603,3.602034416
1604,3.592316077
1605,3.586541285
1606,3.587837457
1607,3.609614341
1608,3.595219174
1609,3.595263045
1610,3.571964606
1611,3.619859136
1612,3.587108279
1613,3.58364147
1614,3.596258119
1615,3.609304285
1616,3.58688358
1617,3.599196293
1618,3.614280578
1619,3.591488644
1620,3.594854574
1621,3.595903881
1622,3.609367998
1623,3.59816737
1624,3.609212027
1625,3.608926784
1626,3.589242947
1627,3.594272227
1628,3.603681069
1629,3.608605887
1630,3.602674415
1631,3.598088338
1632,3.604559493
1633,3.604205721
1634,3.591921167
1635,3.598849077
1636,3.632041893
1637,3.614509962
1638,3.603707919
1639,3.604964021
1640,3.596613587
1641,3.586962631
1642,3.597522956
1643,3.578592884
1644,3.581951524
1645,3.583970913
1646,3.605674538
1647,3.608646351
1648,3.599204748
1649,3.602482848
1650,3.58935437
1651,3.589333476
1652,3.593444801
1653,3.586310796
1654,3.586041218
1655,3.590311827
1656,3.604488345
1657,3.58562264
1658,3.596215745
1659,3.60485493
1660,3.609004407
1661,3.606296009
1662,3.594887961
1663,3.589746861
1664,3.583993959
1665,3.593775237
1666,3.60039753
1667,3.602192594
1668,3.597256061
1669,3.592914155
1670,3.6019547
1671,3.610189183
1672,3.596733442
1673,3.620675037
1674,3.599446333
1675,3.605855174
1676,3.602795197
1677,3.610287608
1678,3.588812248
1679,3.607220362
1680,3.609187978
1681,3.595065181
1682,3.596667705
1683,3.600651145
1684,3.597953992
1685,3.613191421
1686,3.610408453
1687,3.599951001
1688,3.601470531
1689,3.597561882
1690,3.598490599
1691,3.598860058
1692,3.593511438
1693,3.604384073
1694,3.613688881
1695,3.595483834
1696,3.596970417
1697,3.607523492
1698,3.607681448
1699,3.610922759
1700,3.615853114
1701,3.591329164
1702,3.590487407
1703,3.587400148
1704,3.599361008
1705,3.590845872
1706,3.601322171
1707,3.595418905
1708,3.602867111
1709,3.60703406
1710,3.599424576
1711,3.597830299
1712,3.605942893
1713,3.607237565
1714,3.594626205
1715,3.603179384
1716,3.610512053
1717,3.594543026
1718,3.615639252
1719,3.596830447
1720,3.606914624
1721,3.584195694
1722,3.607710501
1723,3.610702926
1724,3.614742064
1725,3.597039421
1726,3.589151929
1727,3.603482845
1728,3.60763472
1729,3.593934847
1730,3.593870717
1731,3.602492443
1732,3.607411158
1733,3.574257116
1734,3.609555146
1735,3.608832544
1736,3.619362065
1737,3.600737235
1738,3.613892264
1739,3.625513888
1740,3.634939156
1741,3.639751245
1742,3.648270225
1743,3.660148698
1744,3.656551608
1745,3.668024772
1746,3.672393459
1747,3.689086651
1748,3.702597272
1749,3.706229335
1750,3.719111448
1751,3.724554102
1752,3.736315263
1753,3.746881449
1754,3.779532904
1755,3.774766553
1756,3.776072396
1757,3.776070709
1758,3.78843312
1759,3.792790309
1760,3.810362286
1761,3.798028996
1762,3.786809203
1763,3.792237442
1764,3.773837422
1765,3.783699561
1766,3.761828224
1767,3.761187243
1768,3.754718871
1769,3.732557731
1770,3.712686629
1771,3.697923502
1772,3.715330564
1773,3.69417658
1774,3.680505736
1775,3.666587865
1776,3.65953071
1777,3.654195076
1778,3.635277086
1779,3.616248562
1780,3.62196472
1781,3.624782897
1782,3.632089319
1783,3.631297185
1784,3.616939663
1785,3.618218542
1786,3.602955165
1787,3.616503138
1788,3.607566025
1789,3.602300415
1790,3.599460174
1791,3.621371601
1792,3.604244929
1793,3.589546187
1794,3.60784842
1795,3.614223252
1796,3.602643582
1797,3.60320758
1798,3.606730294
1799,3.596156746
1800,3.587718382
1801,3.608390333
1802,3.605789707
1803,3.599798188
1804,3.605798321
1805,3.606386901
1806,3.616697057
1807,3.604471248
1808,3.603209969
1809,3.594165843
1810,3.608454333
1811,3.604861158
1812,3.609321376
1813,3.575182173
1814,3.581871775
1815,3.59940043
1816,3.609084819
1817,3.595930759
1818,3.59041897
1819,3.599862632
1820,3.590748531
1821,3.606904744
1822,3.609655931
1823,3.608467088
1824,3.59143037
1825,3.601254604
1826,3.596278546
1827,3.616296377
1828,3.606645852
1829,3.592451874
1830,3.618987881
1831,3.608083368
1832,3.599293299
1833,3.591956812
1834,3.61721575
1835,3.607212507
1836,3.595525196
1837,3.607426103
1838,3.624500264
1839,3.600029654
1840,3.61479768
1841,3.615088436
1842,3.601618069
1843,3.614349293
1844,3.601892032
1845,3.591769801
1846,3.596587242
1847,3.583939336
1848,3.609083636
1849,3.610055842
1850,3.610527891
1851,3.588467706
1852,3.593651139
1853,3.608426031
1854,3.605781733
1855,3.601473057
1856,3.610896957
1857,3.609079489
1858,3.581402537
1859,3.634332923
1860,3.611278444
1861,3.61150595
1862,3.590294942
1863,3.609362747
1864,3.612532102
1865,3.607203411
1866,3.606655121
1867,3.613724514
1868,3.602320623
1869,3.595695331
1870,3.58819316
1871,3.589682096
1872,3.602901089
1873,3.604021343
1874,3.604508739
1875,3.598593964
1876,3.590860109
1877,3.600269333
1878,3.590189777
1879,3.608245805
1880,3.604798391
1881,3.596509394
1882,3.59008418
1883,3.593167004
1884,3.573970655
1885,3.601245117
1886,3.591651135
1887,3.600050685
1888,3.595306872
1889,3.589921979
1890,3.609760026
1891,3.607694069
1892,3.595137965
1893,3.605188521
1894,3.592140608
1895,3.595771349
1896,3.584047582
1897,3.601741027
1898,3.601074339
1899,3.579186958
1900,3.589590576
1901,3.600469093
1902,3.599039291
1903,3.596260509
1904,3.594283028
1905,3.629813172
1906,3.620891962
1907,3.599727592
1908,3.584589829
1909,3.599127891
1910,3.603865085
1911,3.605837454
1912,3.618243693
1913,3.601287445
1914,3.602923086
1915,3.582148677
1916,3.599752662
1917,3.589721091
1918,3.588935601
1919,3.587455975
1920,3.592334759
1921,3.579615501
1922,3.607814688
1923,3.586779633
1924,3.600404512
1925,3.613576758
1926,3.621578886
1927,3.592503019
1928,3.604256335
1929,3.608751452
1930,3.588093908
1931,3.592887994
1932,3.590248634
1933,3.603163529
1934,3.620861807
1935,3.597255723
1936,3.597575244
1937,3.602409776
1938,3.598865033
1939,3.603996666
1940,3.603529406
1941,3.60732962
1942,3.603518872
1943,3.601481377
1944,3.590688811
1945,3.60523568
1946,3.604029804
1947,3.597603239
1948,3.608091486
1949,3.589212249
1950,3.594880338
1951,3.589672331
1952,3.593623698
1953,3.617411492
1954,3.585952004
1955,3.587974546
1956,3.601766919
1957,3.613106918
1958,3.61411992
1959,3.581238013
1960,3.584773963
1961,3.599616994
1962,3.600966945
1963,3.590863944
1964,3.611009912
1965,3.608559243
1966,3.608415206
1967,3.606285462
1968,3.595548376
1969,3.594349277
1970,3.584411718
1971,3.59309816
1972,3.603487254
1973,3.601069413
1974,3.613333298
1975,3.602910043
1976,3.587559589
1977,3.596733507
1978,3.596166844
1979,3.591741477
1980,3.601965433
1981,3.591507191
1982,3.591174889
1983,3.59056268
1984,3.605697023
1985,3.608102654
1986,3.59443246
1987,3.61636726
1988,3.595888445
1989,3.610194033
1990,3.597344961
1991,3.596110894
1992,3.594308573
1993,3.599118335
1994,3.599549718
1995,3.590727584
1996,3.600253742
1997,3.600121267
1998,3.600713195
1999,3.588474355
2000,3.595939177
2001,3.615059575
2002,3.598406045
2003,3.599105263
2004,3.587903493
2005,3.594058627
2006,3.594682402
2007,3.599108815
2008,3.609108245
2009,3.60305293
2010,3.587081828
2011,3.588443305
2012,3.602084856
2013,3.59584524
2014,3.604434103
2015,3.615573601
2016,3.593869285
2017,3.614692652
2018,3.587112277
2019,3.583734988
2020,3.596858827
2021,3.604043607
2022,3.592853726
2023,3.579199742
2024,3.577690671
2025,3.603776237
2026,3.598731146
2027,3.601321214
2028,3.586874944
2029,3.616932206
2030,3.605304912
2031,3.601982922
2032,3.596956121
2033,3.608100481
2034,3.594220684
2035,3.601542966
2036,3.596876794
2037,3.606653559
2038,3.602792968
2039,3.591886308
2040,3.594878445
2041,3.596931408
2042,3.585533137
2043,3.599091874
2044,3.592863402
2045,3.594530122
2046,3.608266331
2047,3.592801455
2048,3.623648519
2049,3.602938149
2050,3.591263786
2051,3.595234991
2052,3.570015772
2053,3.590293561
2054,3.603778775
2055,3.579766522
2056,3.570067886
2057,3.583811907
2058,3.596930015
2059,3.597614874
2060,3.612277662
2061,3.604111387
2062,3.602991433
2063,3.616839204
2064,3.582111476
2065,3.605661286
2066,3.597879591
2067,3.606927758
2068,3.615047988
2069,3.611577869
2070,3.601611597
2071,3.603385401
2072,3.570229069
2073,3.587615602
2074,3.591588557
2075,3.597342673
2076,3.601759219
2077,3.610455512
2078,3.59760094
2079,3.582338861
2080,3.616550738
2081,3.598615991
2082,3.586941143
2083,3.594435851
2084,3.601324727
2085,3.607423614
2086,3.594108096
2087,3.608105285
2088,3.597869661
2089,3.598387164
2090,3.588342672
2091,3.608018119
2092,3.586109029
2093,3.59985011
2094,3.587970517
2095,3.602285042
2096,3.604760197
2097,3.6093673
2098,3.585382603
2099,3.599001344
2100,3.590329645
2101,3.614311467
2102,3.59229731
2103,3.612552776
2104,3.58633788
2105,3.604173564
2106,3.58677781
2107,3.599652298
2108,3.590159953
2109,3.597160138
2110,3.609326999
2111,3.602517002
2112,3.594276996
2113,3.615274846
2114,3.586458343
2115,3.607876158
2116,3.593300614
2117,3.599106634
2118,3.609976166
2119,3.571396175
2120,3.595371068
2121,3.608725952
2122,3.590258086
2123,3.601491491
2124,3.588432468
2125,3.594595467
2126,3.598578543
2127,3.60937911
2128,3.60616158
2129,3.58635722
2130,3.590651182
2131,3.600587171
2132,3.61612086
2133,3.601486562
2134,3.593123855
2135,3.584136944
2136,3.602240721
2137,3.597373109
2138,3.577575618
2139,3.60664234
2140,3.599678025
2141,3.604016508
2142,3.601347833
2143,3.607016475
2144,3.592100139
2145,3.593379831
2146,3.613531562
2147,3.606576625
2148,3.606239102
2149,3.598132489
2150,3.588865739
2151,3.598635978
2152,3.592558671
2153,3.599296978
2154,3.599750595
2155,3.592558349
2156,3.601097484
2157,3.607115429
2158,3.627067026
2159,3.586382153
2160,3.592250748
2161,3.595062085
2162,3.60816263
2163,3.59679239
2164,3.594076125
2165,3.595340497
2166,3.586943377
2167,3.614342036
2168,3.58652338
2169,3.598203828
2170,3.609060082
2171,3.593251196
2172,3.589348606
2173,3.599702407
2174,3.582748346
2175,3.605151634
2176,3.600702002
2177,3.599036301
2178,3.591537173
2179,3.607011459
2180,3.602794443
2181,3.60143691
2182,3.618116373
2183,3.590607344
2184,3.603604941
2185,3.607318409
2186,3.583953721
2187,3.6117311
2188,3.610122121
2189,3.60257309
2190,3.606659734
2191,3.60882452
2192,3.597549506
2193,3.602042358
2194,3.588179343
2195,3.611656934
2196,3.596533637
2197,3.596337308
2198,3.59460343
2199,3.606047656
2200,3.61070901
2201,3.58938508
2202,3.61322388
2203,3.619411347
2204,3.592567935
2205,3.590809612
2206,3.589460449
2207,3.594383941
2208,3.58325657
2209,3.621318643
2210,3.595914339
2211,3.614200981
2212,3.595582791
2213,3.574602478
2214,3.597740853
2215,3.608487937
2216,3.603518736
2217,3.590281869
2218,3.611553034
2219,3.610016379
2220,3.591439313
2221,3.613811056
2222,3.619240434
2223,3.616067165
2224,3.582632184
2225,3.605489643
2226,3.614622246
2227,3.586610169
2228,3.602644867
2229,3.60602207
2230,3.602041802
2231,3.598114108
2232,3.593969297
2233,3.58661638
2234,3.591619805
2235,3.592254757
2236,3.600714142
2237,3.599585208
2238,3.597870376
2239,3.609400584
2240,3.605180054
2241,3.60345536
2242,3.584500514
2243,3.593562282
2244,3.599581347
2245,3.616917548
2246,3.625376855
2247,3.600375156
2248,3.604903774
2249,3.590818036
2250,3.593914351
2251,3.599718121
2252,3.612228665
2253,3.611383005
2254,3.611291332
2255,3.615361617
2256,3.5759631
2257,3.618806861
2258,3.59092288
2259,3.605808524
2260,3.615819599
2261,3.589352432
2262,3.588474842
2263,3.603776079
2264,3.603127679
2265,3.601320845
2266,3.59996362
2267,3.596304124
2268,3.609221088
2269,3.600437097
2270,3.606532117
2271,3.56999573
2272,3.588077717
2273,3.596612104
2274,3.600120955
2275,3.605130086
2276,3.614588603
2277,3.608081046
2278,3.598733358
2279,3.609745551
2280,3.607600289
2281,3.598678427
2282,3.597981955
2283,3.60052098
2284,3.603604827
2285,3.617662381
2286,3.589920088
2287,3.609572648
2288,3.611347234
2289,3.604685939
2290,3.587503226
2291,3.600629414
2292,3.58673549
2293,3.606250514
2294,3.602084591
2295,3.581409922
2296,3.596093924
2297,3.608972803
2298,3.588085351
2299,3.595024726
2300,3.589152969
2301,3.589031374
2302,3.614382302
2303,3.596582425
2304,3.613537264
2305,3.598372009
2306,3.587785848
2307,3.595528852
2308,3.624000562
2309,3.582983394
2310,3.599548199
2311,3.586985944
2312,3.602096565
2313,3.60187989
2314,3.601454138
2315,3.615356056
2316,3.599362452
2317,3.618327102
2318,3.582082654
2319,3.609173644
2320,3.58729383
2321,3.610395554
2322,3.617358418
2323,3.591188368
2324,3.583572325
2325,3.583697422
2326,3.589121097
2327,3.577699176
2328,3.624880288
2329,3.612310639
2330,3.607817858
2331,3.597867459
2332,3.599495104
2333,3.582809663
2334,3.586403731
2335,3.603059597
2336,3.588593055
2337,3.601898272
2338,3.583795956
2339,3.61083835
2340,3.59586246
2341,3.597839499
2342,3.589581033
2343,3.62775234
2344,3.593353891
2345,3.631169663
2346,3.610713706
2347,3.605064264
2348,3.587054073
2349,3.603262431
2350,3.602610191
2351,3.606675578
2352,3.596551077
2353,3.612966846
2354,3.596789065
2355,3.612531346
2356,3.592448794
2357,3.601509572
2358,3.608905364
2359,3.585738331
2360,3.601145343
2361,3.610088108
2362,3.590346392
2363,3.599802615
2364,3.607348703
2365,3.605731596
2366,3.613163724
2367,3.597090288
2368,3.588780564
2369,3.610032746
2370,3.612731709
2371,3.58706882
2372,3.585536159
2373,3.598336034
2374,3.589210181
2375,3.579402006
2376,3.578996547
2377,3.603333704
2378,3.584141027
2379,3.609263238
2380,3.591679681
2381,3.593845546
2382,3.599917231
2383,3.592344521
2384,3.590669682
2385,3.599808882
2386,3.614623993
2387,3.586230459
2388,3.598635013
2389,3.600616606
2390,3.594040223
2391,3.6110882
2392,3.588947173
2393,3.600946675
2394,3.594207164
2395,3.613656531
2396,3.575052819
2397,3.589272503
2398,3.597237468
2399,3.595639913
2400,3.611244534
2401,3.61457575
2402,3.589108143
2403,3.592353159
2404,3.600856738
2405,3.588143302
2406,3.592071649
2407,3.605455522
2408,3.58526631
2409,3.612053135
2410,3.598374137
2411,3.578723582
2412,3.594494465
2413,3.596374073
2414,3.60490244
2415,3.597413383
2416,3.614172387
2417,3.613483883
2418,3.612900747
2419,3.596111207
2420,3.594459668
2421,3.59126428
2422,3.601098494
2423,3.598662454
2424,3.592779047
2425,3.610325735
2426,3.602194072
2427,3.602120609
2428,3.614847424
2429,3.602143592
2430,3.60553135
2431,3.612852238
2432,3.579383066
2433,3.594891574
2434,3.605515934
2435,3.599619442
2436,3.613636261
2437,3.606334752
2438,3.602553049
2439,3.595993087
2440,3.584913335
2441,3.596242723
2442,3.610088932
2443,3.609589103
2444,3.590478396
2445,3.610210454
2446,3.602483579
2447,3.616851844
2448,3.601939498
2449,3.59264472
2450,3.625840808
2451,3.601850604
2452,3.602863207
2453,3.602617331
2454,3.589875852
2455,3.618099227
2456,3.584956408
2457,3.596566841
2458,3.585722731
2459,3.619128138
2460,3.608292344
2461,3.605007506
2462,3.598826064
2463,3.609885047
2464,3.602478987
2465,3.589935738
2466,3.622255493
2467,3.600760001
2468,3.608243733
2469,3.603089892
2470,3.619801352
2471,3.605440838
2472,3.586465559
2473,3.590811382
2474,3.607810901
2475,3.59798891
2476,3.592008334
2477,3.602937632
2478,3.595007458
2479,3.602993343
2480,3.580098891
2481,3.60625387
2482,3.593023028
2483,3.595199044
2484,3.610322417
2485,3.598741712
2486,3.585275561
2487,3.594029528
2488,3.607552385
2489,3.609757685
2490,3.600867734
2491,3.582596371
2492,3.601514289
2493,3.594756341
2494,3.585828129
2495,3.586509957
2496,3.577118234
2497,3.592256855
2498,3.606102758
2499,3.594033524
2500,3.589335976
2501,3.59640382
2502,3.609911176
2503,3.596206626
2504,3.608960128
2505,3.594890295
2506,3.589262948
2507,3.600134073
2508,3.585698222
2509,3.590965911
2510,3.604364819
2511,3.612364791
2512,3.606636836
2513,3.579371412
2514,3.588261876
2515,3.605806882
2516,3.602298052
2517,3.609171491
2518,3.589353518
2519,3.596602439
2520,3.604358305
2521,3.591887992
2522,3.601993942
2523,3.617367085
2524,3.58909362
2525,3.619679122
2526,3.594417993
2527,3.600974672
2528,3.597726052
2529,3.616116425
2530,3.615653417
2531,3.578392868
2532,3.590066612
2533,3.614292847
2534,3.593795889
2535,3.605364336
2536,3.610334447
2537,3.598626952
2538,3.597330525
2539,3.607795731
2540,3.597542246
2541,3.586767227
2542,3.603131556
2543,3.610709061
2544,3.575465678
2545,3.59841509
2546,3.58996949
2547,3.590517919
2548,3.591659738
2549,3.597330021
2550,3.5970691
2551,3.602862793
2552,3.604710441
2553,3.599821247
2554,3.593413633
2555,3.599232312
2556,3.601455478
2557,3.604722459
2558,3.61390519
2559,3.594896406
2560,3.583471922
2561,3.595103402
2562,3.599986747
2563,3.603358353
2564,3.601880253
2565,3.59781524
2566,3.615870482
2567,3.591531611
2568,3.602410304
2569,3.60202838
2570,3.586449126
2571,3.595936392
2572,3.598657791
2573,3.601858528
2574,3.59247976
2575,3.597148634
2576,3.590178165
2577,3.601142015
2578,3.585811165
2579,3.597974805
2580,3.585872616
2581,3.596645548
2582,3.60261031
2583,3.5982067
2584,3.597737362
2585,3.599245324
2586,3.584171905
2587,3.614121351
2588,3.605240658
2589,3.596967221
2590,3.586254072
2591,3.613076924
2592,3.603916753
2593,3.589640625
2594,3.622557859
2595,3.613519386
2596,3.602598197
2597,3.621759109
2598,3.59512658
2599,3.606030405
2600,3.599110298
2601,3.602813943
2602,3.61464064
2603,3.60087192
2604,3.593495667
2605,3.598701264
2606,3.603895111
2607,3.595939861
2608,3.5988203
2609,3.611212459
2610,3.587489471
2611,3.619276886
2612,3.618263676
2613,3.576200108
2614,3.603096432
2615,3.604280738
2616,3.5923242
2617,3.597700331
2618,3.599320778
2619,3.608383259
2620,3.58729311
2621,3.590678278
2622,3.59843224
2623,3.592063089
2624,3.606572649
2625,3.593323259
2626,3.60940711
2627,3.582243199
2628,3.582431047
2629,3.578243162
2630,3.606984544
2631,3.605125172
2632,3.634989742
2633,3.589925414
2634,3.58618901
2635,3.592783842
2636,3.609331469
2637,3.604990026
2638,3.603783308
2639,3.592923309
2640,3.602482594
2641,3.596620243
2642,3.600484495
2643,3.604219505
2644,3.599078521
2645,3.588368597
2646,3.59770403
2647,3.592407936
2648,3.594389134
2649,3.584215821
2650,3.591906825
2651,3.605578133
2652,3.593561959
2653,3.620920113
2654,3.591574702
2655,3.609422798
2656,3.590525732
2657,3.596259138
2658,3.601474248
2659,3.589845036
2660,3.615873019
2661,3.60246599
2662,3.582548483
2663,3.589818926
2664,3.599584128
2665,3.59223589
2666,3.582642207
2667,3.594519804
2668,3.608275265
2669,3.597319495
2670,3.602075025
2671,3.593648928
2672,3.575101064
2673,3.589099101
2674,3.602035215
2675,3.586621757
2676,3.59672237
2677,3.602137663
2678,3.603251084
2679,3.59516829
2680,3.608434495
2681,3.597210303
2682,3.599512123
2683,3.592549111
2684,3.59837364
2685,3.615619847
2686,3.608036192
2687,3.59501007
2688,3.598526831
2689,3.58856176
2690,3.612968745
2691,3.587669083
2692,3.601020162
2693,3.602961458
2694,3.598453976
2695,3.625826236
2696,3.606579872
2697,3.587981178
2698,3.593575389
2699,3.58521157
2700,3.590700394
2701,3.614005618
2702,3.591858252
2703,3.596684565
2704,3.587942553
2705,3.604070695
2706,3.606954837
2707,3.623309522
2708,3.585612544
2709,3.604290303
2710,3.586045691
2711,3.598771965
2712,3.617585282
2713,3.613947046
2714,3.602882916
2715,3.60781024
2716,3.596440459
2717,3.593965816
2718,3.605446293
2719,3.599300467
2720,3.609986652
2721,3.590887333
2722,3.594088339
2723,3.60514579
2724,3.582079184
2725,3.584127395
2726,3.569764388
2727,3.602258159
2728,3.613607931
2729,3.599742249
2730,3.602482866
2731,3.585068765
2732,3.615946652
2733,3.578691146
2734,3.598625484
2735,3.584142969
2736,3.60760714
2737,3.598595632
2738,3.61725026
2739,3.582654581
2740,3.607336264
2741,3.601264189
2742,3.583074996
2743,3.602706935
2744,3.615375635
2745,3.610468804
2746,3.599587254
2747,3.609452977
2748,3.591766826
2749,3.604340529
2750,3.607024305
2751,3.595855301
2752,3.612087446
2753,3.592251982
2754,3.606949746
2755,3.600529394
2756,3.602562543
2757,3.599720557
2758,3.590575075
2759,3.598661929
2760,3.617971464
2761,3.587428617
2762,3.580960537
2763,3.599908778
2764,3.612577053
2765,3.625560506
2766,3.588532029
2767,3.600615818
2768,3.595597946
2769,3.583940413
2770,3.604979419
2771,3.606649022
2772,3.589562024
2773,3.599182601
2774,3.595542832
2775,3.622575455
2776,3.601064498
2777,3.60958809
2778,3.622799618
2779,3.597191853
2780,3.58896643
2781,3.619708965
2782,3.581202719
2783,3.601645884
2784,3.602617681
2785,3.596463207
2786,3.60515323
2787,3.601663678
2788,3.602029415
2789,3.589151619
2790,3.600800279
2791,3.5952925
2792,3.594685689
2793,3.613295742
2794,3.610891228
2795,3.585002972
2796,3.611930923
2797,3.588698104
2798,3.594362287
2799,3.592622574
2800,3.609989288
2801,3.593446268
2802,3.592918308
2803,3.58836841
2804,3.597451581
2805,3.584377849
2806,3.598048011
2807,3.592437909
2808,3.602737978
2809,3.592431283
2810,3.588122266
2811,3.596886823
2812,3.589233938
2813,3.600637181
2814,3.611477037
2815,3.612664965
2816,3.613500383
2817,3.605545798
2818,3.596476276
2819,3.580061629
2820,3.600853072
2821,3.599843565
2822,3.615111156
2823,3.599612131
2824,3.597380958
2825,3.600906895
2826,3.605381005
2827,3.614237526
2828,3.578823211
2829,3.577337476
2830,3.605481469
2831,3.601922115
2832,3.59429801
2833,3.608906414
2834,3.602829048
2835,3.594871086
2836,3.608147345
2837,3.616209253
2838,3.594878054
2839,3.593731016
2840,3.599889947
2841,3.601354704
2842,3.591926165
2843,3.599058819
2844,3.594519297
2845,3.614206379
2846,3.600443183
2847,3.599696804
2848,3.599994957
2849,3.621135505
2850,3.610423948
2851,3.602423011
2852,3.600171035
2853,3.604669177
2854,3.580239399
2855,3.580672835
2856,3.61628951
2857,3.593873774
2858,3.601634446
2859,3.604097727
2860,3.596167271
2861,3.608912467
2862,3.60446593
2863,3.592841774
2864,3.596362615
2865,3.59607177
2866,3.586326926
2867,3.59273784
2868,3.605023413
2869,3.593492399
2870,3.596196743
2871,3.619652645
2872,3.592734556
2873,3.600698266
2874,3.608316459
2875,3.592449301
2876,3.598115397
2877,3.598593744
2878,3.599930619
2879,3.58170317
2880,3.588422661
2881,3.597153571
2882,3.580464359
2883,3.589447855
2884,3.586983136
2885,3.622800901
2886,3.593570505
2887,3.593539305
2888,3.591976505
2889,3.588845184
2890,3.613043854
2891,3.605693609
2892,3.595037697
2893,3.58581238
2894,3.570587766
2895,3.606879653
2896,3.577812344
2897,3.603971917
2898,3.600547658
2899,3.591219113
2900,3.615668597
2901,3.586361248
2902,3.592288662
2903,3.60134727
2904,3.60285306
2905,3.610540585
2906,3.587859799
2907,3.604643207
2908,3.604097871
2909,3.578519973
2910,3.594875229
2911,3.588732174
2912,3.60243397
2913,3.601189851
2914,3.60897996
2915,3.602897925
2916,3.605976483
2917,3.599763926
2918,3.595361907
2919,3.599539903
2920,3.597406128
2921,3.599913504
2922,3.605010519
2923,3.607296663
2924,3.620775396
2925,3.614309892
2926,3.599154808
2927,3.607307652
2928,3.609968158
2929,3.581241595
2930,3.599023576
2931,3.594283195
2932,3.601440939
2933,3.585098249
2934,3.595820396
2935,3.59756836
2936,3.608808364
2937,3.606869997
2938,3.590098549
2939,3.59147524
2940,3.579697399
2941,3.599860163
2942,3.590130216
2943,3.601285282
2944,3.599546127
2945,3.600497189
2946,3.603287466
2947,3.613082384
2948,3.603384562
2949,3.596369655
2950,3.594871246
2951,3.586505309
2952,3.601623716
2953,3.599944848
2954,3.580076377
2955,3.600492754
2956,3.604044099
2957,3.594311345
2958,3.591882027
2959,3.596729767
2960,3.596294937
2961,3.605176533
2962,3.589749541
2963,3.602389636
2964,3.616953978
2965,3.605543217
2966,3.589843852
2967,3.578406178
2968,3.577609031
2969,3.586409624
2970,3.609507306
2971,3.593752723
2972,3.589130637
2973,3.611798752
2974,3.600234383
2975,3.608234152
2976,3.60468311
2977,3.602639568
2978,3.605076504
2979,3.598954543
2980,3.594626476
2981,3.605298597
2982,3.58476497
2983,3.606444171
2984,3.577535663
2985,3.599289079
2986,3.601942286
2987,3.613634092
2988,3.591484154
2989,3.603022215
2990,3.609831325
2991,3.609188156
2992,3.606036608
2993,3.59725129
2994,3.602349096
2995,3.607347586
2996,3.592070858
2997,3.603431966
2998,3.59786962
2999,3.596537053
3000,3.60422108
3001,3.57784323
3002,3.597014307
3003,3.589947786
3004,3.579387884
3005,3.587968867
3006,3.588416806
3007,3.595356964
3008,3.600586085
3009,3.59216339
3010,3.594567989
3011,3.610695147
3012,3.588822566
3013,3.625753696
3014,3.585726723
3015,3.605631469
3016,3.60847373
3017,3.589969817
3018,3.605086754
3019,3.592033987
3020,3.59456208
3021,3.602307124
3022,3.618062755
3023,3.613520264
3024,3.594597363
3025,3.577563799
3026,3.605686995
3027,3.596656895
3028,3.591568473
3029,3.589146559
3030,3.591617278
3031,3.608457418
3032,3.601331714
3033,3.589970976
3034,3.612339598
3035,3.600593794
3036,3.605025361
3037,3.604155247
3038,3.595978712
3039,3.581709948
3040,3.604000845
3041,3.587093252
3042,3.592898856
3043,3.604728896
3044,3.603224185
3045,3.596258074
3046,3.599413242
3047,3.60940723
3048,3.611278001
3049,3.5929523
3050,3.597904381
3051,3.617680902
3052,3.608888312
3053,3.600200054
3054,3.595767574
3055,3.604301228
3056,3.590906156
3057,3.597432453
3058,3.588263883
3059,3.598504575
3060,3.610069048
3061,3.616185224
3062,3.592100318
3063,3.582903723
3064,3.606632532
3065,3.58803841
3066,3.589376416
3067,3.600826908
3068,3.603409008
3069,3.622841259
3070,3.614219627
3071,3.610935545
3072,3.583115761
3073,3.602506857
3074,3.598269986
3075,3.589991343
3076,3.606141014
3077,3.598933059
3078,3.621568044
3079,3.615320536
3080,3.595877834
3081,3.60174412
3082,3.601649144
3083,3.585633723
3084,3.595146492
3085,3.595480175
3086,3.587876891
3087,3.602849354
3088,3.597783552
3089,3.611863101
3090,3.615116134
3091,3.599474203
3092,3.595680287
3093,3.619484181
3094,3.595207684
3095,3.589692838
3096,3.616692237
3097,3.605232784
3098,3.581491448
3099,3.594761413
3100,3.604084547
3101,3.601040412
3102,3.602200666
3103,3.588608319
3104,3.602839308
3105,3.591054039
3106,3.600006001
3107,3.607887361
3108,3.594936354
3109,3.600581492
3110,3.609726155
3111,3.578905142
3112,3.599008192
3113,3.601814031
3114,3.609804078
3115,3.60871128
3116,3.586472041
3117,3.586501299
3118,3.596517633
3119,3.590286454
3120,3.599772199
3121,3.599306782
3122,3.586707705
3123,3.608394485
3124,3.580461937
3125,3.605442018
3126,3.601193953
3127,3.614338174
3128,3.602769822
3129,3.592035763
3130,3.587699248
3131,3.578019716
3132,3.606565207
3133,3.586352804
3134,3.60841896
3135,3.618958984
3136,3.611685816
3137,3.600349091
3138,3.609277513
3139,3.596918265
3140,3.600083078
3141,3.599627843
3142,3.595743462
3143,3.602070573
3144,3.594922182
3145,3.58898692
3146,3.609195976
3147,3.587840264
3148,3.596671966
3149,3.603410304
3150,3.606538134
3151,3.592715865
3152,3.60196295
3153,3.596423899
3154,3.620168595
3155,3.587294663
3156,3.601701562
3157,3.601992022
3158,3.599625009
3159,3.625411594
3160,3.599751971
3161,3.616201696
3162,3.602100628
3163,3.601793001
3164,3.615131874
3165,3.591258955
3166,3.597352358
3167,3.582693329
3168,3.614840312
3169,3.600898092
3170,3.604268401
3171,3.599010342
3172,3.606996813
3173,3.592582002
3174,3.597395777
3175,3.593981116
3176,3.5924
3177,3.611954736
3178,3.598959166
3179,3.60831016
3180,3.597427427
3181,3.598503686
3182,3.603864414
3183,3.599983472
3184,3.594419733
3185,3.611503496
3186,3.595820039
3187,3.574301275
3188,3.598981563
3189,3.595029062
3190,3.58911597
3191,3.609793151
3192,3.596297357
3193,3.594980679
3194,3.606755461
3195,3.597987841
3196,3.583906916
3197,3.608025561
3198,3.599743092
3199,3.595310332
3200,3.602371954
3201,3.596674649
3202,3.583020441
3203,3.609856309
3204,3.587905266
3205,3.604281465
3206,3.601913249
3207,3.60845242
3208,3.588917426
3209,3.612281383
3210,3.599248854
3211,3.600817168
3212,3.605785947
3213,3.606801848
3214,3.591161532
3215,3.603451844
3216,3.591894198
3217,3.619936836
3218,3.60779779
3219,3.603787552
3220,3.604123928
3221,3.614228722
3222,3.600064279
3223,3.591194163
3224,3.605976919
3225,3.599913214
3226,3.606556378
3227,3.602040988
3228,3.59348202
3229,3.625508864
3230,3.593871781
3231,3.5940287
3232,3.61842026
3233,3.590283744
3234,3.598495718
3235,3.599764923
3236,3.612092271
3237,3.604488694
3238,3.594142634
3239,3.604755073
3240,3.595691207
3241,3.613264249
3242,3.604318519
3243,3.598373041
3244,3.591662353
3245,3.593231017
3246,3.610955665
3247,3.584726443
3248,3.585208311
3249,3.590861221
3250,3.599247169
3251,3.598962017
3252,3.594226567
3253,3.578574335
3254,3.603740709
3255,3.600806133
3256,3.588710478
3257,3.607178405
3258,3.611067757
3259,3.619385262
3260,3.599867008
3261,3.587999193
3262,3.589853487
3263,3.608522915
3264,3.593589568
3265,3.604774632
3266,3.60162008
3267,3.597997615
3268,3.61232667
3269,3.610973789
3270,3.602031775
3271,3.591017675
3272,3.590599056
3273,3.574990281
3274,3.612134392
3275,3.618378669
3276,3.597051535
3277,3.577526573
3278,3.606573769
3279,3.610904768
3280,3.591633618
3281,3.602563571
3282,3.607467291
3283,3.597199565
3284,3.582063348
3285,3.597363946
3286,3.598761759
3287,3.606892099
3288,3.607534163
3289,3.607990502
3290,3.601133411
3291,3.603485235
3292,3.594697489
3293,3.602217707
3294,3.604651639
3295,3.621975638
3296,3.595408945
3297,3.590781728
3298,3.60058928
3299,3.601774867
3300,3.607168467
3301,3.587384001
3302,3.605869821
3303,3.596562185
3304,3.605813133
3305,3.590025096
3306,3.596104259
3307,3.616222015
3308,3.59519708
3309,3.605952452
3310,3.59114788
3311,3.592483971
3312,3.599201335
3313,3.601148596
3314,3.593621462
3315,3.617220603
3316,3.573996561
3317,3.590460552
3318,3.613412722
3319,3.611975557
3320,3.590104953
3321,3.612113983
3322,3.597903004
3323,3.572910122
3324,3.591843926
3325,3.593292378
3326,3.599343166
3327,3.582511006
3328,3.597420423
3329,3.598309389
3330,3.601961543
3331,3.583475466
3332,3.596278308
3333,3.588598212
3334,3.614474133
3335,3.595210907
3336,3.604876439
3337,3.61243358
3338,3.606625809
3339,3.602957025
3340,3.593436346
3341,3.598237209
3342,3.599204634
3343,3.595577771
3344,3.601454391
3345,3.612565923
3346,3.601486514
3347,3.606788305
3348,3.61376284
3349,3.627292763
3350,3.608509741
3351,3.591280086
3352,3.602144381
3353,3.593962281
3354,3.576658695
3355,3.604157822
3356,3.581115996
3357,3.5835795
3358,3.594457904
3359,3.60538686
3360,3.618789422
3361,3.617344646
3362,3.601363024
3363,3.581488065
3364,3.596812214
3365,3.600155541
3366,3.606351477
3367,3.597962197
3368,3.596855046
3369,3.602898055
3370,3.606424919
3371,3.619736064
3372,3.601535683
3373,3.595281326
3374,3.596513998
3375,3.611090666
3376,3.606106588
3377,3.590023497
3378,3.598439832
3379,3.599492148
3380,3.599764717
3381,3.605943789
3382,3.600865501
3383,3.605735441
3384,3.608987596
3385,3.610552902
3386,3.601142561
3387,3.606167559
3388,3.618225965
3389,3.60604088
3390,3.589709103
3391,3.590325363
3392,3.585522639
3393,3.58637345
3394,3.614633204
3395,3.5878454
3396,3.598964579
3397,3.579459073
3398,3.610176488
3399,3.589069767
3400,3.573237411
3401,3.598689121
3402,3.603564747
3403,3.603080317
3404,3.615985371
3405,3.588807034
3406,3.582592636
3407,3.596338787
3408,3.609806161
3409,3.593262562
3410,3.610480552
3411,3.621720071
3412,3.603202751
3413,3.609664339
3414,3.610853926
3415,3.585295706
3416,3.597582477
3417,3.610885722
3418,3.608377891
3419,3.583889639
3420,3.581013804
3421,3.589298093
3422,3.602656539
3423,3.596594884
3424,3.593375072
3425,3.607084808
3426,3.594652484
3427,3.600166641
3428,3.60320705
3429,3.609290428
3430,3.602037167
3431,3.611760851
3432,3.594989078
3433,3.61065719
3434,3.605160818
3435,3.618889491
3436,3.594545972
3437,3.600001527
3438,3.608424837
3439,3.609388067
3440,3.58743906
3441,3.596728092
3442,3.592511103
3443,3.602283912
3444,3.598802689
3445,3.628886421
3446,3.601408312
3447,3.595708876
3448,3.607078919
3449,3.613251191
3450,3.601679544
3451,3.592096508
3452,3.603712441
3453,3.594654476
3454,3.611761306
3455,3.582287881
3456,3.600901113
3457,3.607109004
3458,3.600533671
3459,3.593552765
3460,3.594930049
3461,3.603753393
3462,3.616473693
3463,3.599584364
3464,3.592494957
3465,3.60433114
3466,3.596279244
3467,3.590085707
3468,3.599872397
3469,3.60689048
3470,3.615712248
3471,3.614863325
3472,3.603073273
3473,3.601717054
3474,3.597716937
3475,3.590013094
3476,3.598115445
3477,3.575595399
3478,3.590881705
3479,3.595811165
3480,3.600218797
3481,3.594411638
3482,3.604407157
3483,3.580375029
3484,3.602754695
3485,3.602016027
3486,3.613066257
3487,3.603235624
3488,3.593113116
3489,3.607552246
3490,3.595150669
3491,3.600550573
3492,3.594905735
3493,3.61456
3494,3.586192004
3495,3.590334485
3496,3.601543661
3497,3.594355198
3498,3.607681248
3499,3.616266031
3500,3.601454793
3501,3.583391856
3502,3.616712701
3503,3.595805361
3504,3.615426146
3505,3.597823262
3506,3.598399711
3507,3.59663375
3508,3.594564515
3509,3.629452054
3510,3.598905504
3511,3.610373408
3512,3.605745588
3513,3.602859973
3514,3.608715434
3515,3.585800677
3516,3.603063302
3517,3.624973397
3518,3.600512398
3519,3.600399757
3520,3.598442138
3521,3.587804655
3522,3.593446938
3523,3.609422358
3524,3.594808297
3525,3.598165819
3526,3.606652174
3527,3.604761736
3528,3.622781106
3529,3.607399271
3530,3.612879321
3531,3.607539965
3532,3.598243798
3533,3.609283702
3534,3.58869515
3535,3.607926079
3536,3.612504774
3537,3.582965006
3538,3.590743101
3539,3.603017919
3540,3.593200147
3541,3.609130958
3542,3.5947833
3543,3.607276699
3544,3.593558715
3545,3.594201328
3546,3.57996436
3547,3.608735406
3548,3.62273562
3549,3.599101594
3550,3.61476739
3551,3.607783255
3552,3.592701284
3553,3.601218455
3554,3.614556498
3555,3.599462007
3556,3.602368171
3557,3.593119102
3558,3.576456565
3559,3.602481676
3560,3.598803345
3561,3.615018554
3562,3.599100767
3563,3.607656024
3564,3.602990871
3565,3.621385745
3566,3.590313342
3567,3.589047543
3568,3.583298523
3569,3.610539692
3570,3.600082286
3571,3.605529656
3572,3.606939933
3573,3.608726242
3574,3.615446031
3575,3.602706912
3576,3.605803224
3577,3.596399632
3578,3.621606338
3579,3.59446405
3580,3.600669314
3581,3.596874029
3582,3.588659083
3583,3.590083374
3584,3.594667008
3585,3.586509566
3586,3.591888683
3587,3.608935182
3588,3.591683052
3589,3.605612325
3590,3.59765199
3591,3.596767125
3592,3.572730695
3593,3.595271644
3594,3.595907907
3595,3.60071981
3596,3.608385095
3597,3.603312008
3598,3.608225956
3599,3.59933344
3600,3.596281113
3601,3.59823415
3602,3.610702798
3603,3.60531205
3604,3.592766084
3605,3.601427629
3606,3.613474181
3607,3.601707132
3608,3.599393999
3609,3.60204224
3610,3.593029151
3611,3.591758437
3612,3.592943063
3613,3.596616396
3614,3.584763614
3615,3.614406708
3616,3.604442902
3617,3.591258043
3618,3.610540199
3619,3.60986696
3620,3.589877005
3621,3.595022013
3622,3.593542333
3623,3.580932151
3624,3.609389997
3625,3.585264201
3626,3.605304649
3627,3.595282199
3628,3.585199453
3629,3.579466361
3630,3.601402592
3631,3.606906573
3632,3.590279642
3633,3.612040145
3634,3.595854579
3635,3.613293445
3636,3.600307334
3637,3.592862751
3638,3.586117229
3639,3.598762119
3640,3.597283623
3641,3.612809514
3642,3.608437144
3643,3.590088034
3644,3.589259333
3645,3.59183662
3646,3.603641838
3647,3.590474485
3648,3.594090994
3649,3.610764976
3650,3.599082918
3651,3.588419013
3652,3.617052698
3653,3.599418427
3654,3.599883597
3655,3.591607848
3656,3.58070834
3657,3.609225009
3658,3.600786498
3659,3.577197295
3660,3.604665618
3661,3.605755427
3662,3.596815978
3663,3.607545784
3664,3.58843257
3665,3.605110251
3666,3.597199231
3667,3.613569444
3668,3.599208443
3669,3.596644697
3670,3.610801003
3671,3.597671876
3672,3.594891585
3673,3.602031686
3674,3.606375008
3675,3.599634462
3676,3.608188467
3677,3.599783172
3678,3.608125238
3679,3.601144899
3680,3.594668458
3681,3.618248766
3682,3.589688392
3683,3.603064234
3684,3.602080718
3685,3.59747129
3686,3.584206119
3687,3.614641009
3688,3.592185785
3689,3.602034692
3690,3.596247717
3691,3.603028044
3692,3.621320554
3693,3.595665325
3694,3.623714994
3695,3.58266787
3696,3.58988947
3697,3.611840475
3698,3.603039783
3699,3.59903103
3700,3.590013107
3701,3.598737073
3702,3.596343812
3703,3.590842908
3704,3.600082861
3705,3.596038836
3706,3.594620193
3707,3.591735559
3708,3.599634894
3709,3.599566299
3710,3.58419633
3711,3.617169621
3712,3.600626099
3713,3.587467296
3714,3.590272292
3715,3.624396587
3716,3.599668982
3717,3.594352953
3718,3.617322623
3719,3.60008887
3720,3.591653187
3721,3.59984373
3722,3.586592303
3723,3.599381197
3724,3.606794622
3725,3.608530156
3726,3.611512585
3727,3.604222813
3728,3.60486577
3729,3.604314369
3730,3.591645675
3731,3.614854909
3732,3.592015557
3733,3.616802985
3734,3.599863587
3735,3.593760007
3736,3.610262177
3737,3.586817474
3738,3.602022108
3739,3.59317907
3740,3.585606048
3741,3.604466173
3742,3.604427737
3743,3.599651975
3744,3.59922158
3745,3.602678782
3746,3.590747693
3747,3.615336562
3748,3.602176495
3749,3.596376894
3750,3.59806932
3751,3.61063108
3752,3.591678594
3753,3.614017059
3754,3.596441227
3755,3.591469022
3756,3.616869506
3757,3.601517421
3758,3.591891793
3759,3.605666842
3760,3.601009982
3761,3.605613036
3762,3.608217183
3763,3.611526595
3764,3.60128107
3765,3.605615942
3766,3.592384684
3767,3.580837547
3768,3.608372172
3769,3.609591777
3770,3.586310231
3771,3.596044522
3772,3.607505564
3773,3.599481068
3774,3.599397322
3775,3.586660812
3776,3.60060355
3777,3.601425279
3778,3.606122392
3779,3.581430683
3780,3.590887582
3781,3.590941359
3782,3.596937484
3783,3.590414308
3784,3.594873364
3785,3.613663892
3786,3.618796062
3787,3.577552108
3788,3.604006579
3789,3.592049389
3790,3.611361414
3791,3.598557379
3792,3.611566306
3793,3.600911493
3794,3.596195774
3795,3.610282404
3796,3.587239876
3797,3.60707264
3798,3.592371208
3799,3.598177285
3800,3.607074062
3801,3.616282558
3802,3.618076372
3803,3.602284382
3804,3.587924786
3805,3.61131979
3806,3.593488758
3807,3.59592822
3808,3.594861587
3809,3.605331657
3810,3.598718428
3811,3.606566256
3812,3.600332105
3813,3.587435508
3814,3.616344242
3815,3.602824927
3816,3.609493365
3817,3.593388489
3818,3.603424396
3819,3.602536777
3820,3.606421117
3821,3.585928438
3822,3.591875191
3823,3.600537931
3824,3.613375872
3825,3.606826446
3826,3.61645636
3827,3.609348576
3828,3.598651499
3829,3.596815277
3830,3.601714168
3831,3.599440187
3832,3.596820458
3833,3.604228393
3834,3.588993697
3835,3.621780102
3836,3.616084429
3837,3.617480074
3838,3.599071386
3839,3.593122942
3840,3.58022162
3841,3.604035431
3842,3.611827459
3843,3.606718213
3844,3.594736882
3845,3.602477349
3846,3.625536125
3847,3.586398881
3848,3.593393141
3849,3.600582009
3850,3.59952335
3851,3.603577582
3852,3.594374615
3853,3.597410378
3854,3.602232933
3855,3.600443154
3856,3.598095596
3857,3.593737767
3858,3.598789751
3859,3.588531229
3860,3.596328059
3861,3.613583781
3862,3.602104238
3863,3.589454943
3864,3.602873752
3865,3.593399764
3866,3.597655409
3867,3.582078825
3868,3.588419143
3869,3.581392383
3870,3.603621813
3871,3.612767647
3872,3.58887111
3873,3.58063159
3874,3.599098868
3875,3.586532455
3876,3.604920317
3877,3.595834252
3878,3.602839867
3879,3.612658418
3880,3.60745662
3881,3.596661929
3882,3.590026122
3883,3.616453668
3884,3.593932911
3885,3.601125421
3886,3.608757782
3887,3.615164664
3888,3.610115186
3889,3.586476415
3890,3.587461273
3891,3.601504243
3892,3.60200878
3893,3.595919804
3894,3.585809924
3895,3.596730336
3896,3.612438524
3897,3.605114072
3898,3.604620715
3899,3.583500931
3900,3.595660635
3901,3.61508193
3902,3.594995693
3903,3.601213389
3904,3.59770992
3905,3.589078889
3906,3.605970859
3907,3.593716962
3908,3.599168287
3909,3.595712356
3910,3.590158462
3911,3.600270095
3912,3.602926928
3913,3.5955285
3914,3.601454011
3915,3.57767705
3916,3.592879351
3917,3.608385226
3918,3.589933176
3919,3.59640553
3920,3.597856525
3921,3.582879263
3922,3.595458125
3923,3.617332079
3924,3.609271767
3925,3.624437135
3926,3.601863428
3927,3.603473957
3928,3.589146987
3929,3.6063782
3930,3.619580928
3931,3.609747168
3932,3.60033216
3933,3.601823592
3934,3.604151089
3935,3.612401429
3936,3.58470368
3937,3.605651189
3938,3.594630786
3939,3.60378835
3940,3.592934426
3941,3.57844916
3942,3.588143215
3943,3.608270723
3944,3.589276561
3945,3.597950338
3946,3.604859657
3947,3.587531246
3948,3.618366824
3949,3.589522953
3950,3.606444518
3951,3.602363913
3952,3.611632714
3953,3.590197497
3954,3.614884711
3955,3.591592581
3956,3.589311935
3957,3.591190087
3958,3.599514468
3959,3.58668418
3960,3.602674073
3961,3.599305862
3962,3.602612465
3963,3.612677241
3964,3.588437169
3965,3.591747262
3966,3.605960041
3967,3.609305792
3968,3.602974512
3969,3.613615639
3970,3.590133932
3971,3.603348499
3972,3.620335784
3973,3.60884738
3974,3.606919
3975,3.612214057
3976,3.606465719
3977,3.614996611
3978,3.584702575
3979,3.590559898
3980,3.590532922
3981,3.595452504
3982,3.582633376
3983,3.618233307
3984,3.609227551
3985,3.598961208
3986,3.609037423
3987,3.605741034
3988,3.595965427
3989,3.601225793
3990,3.58059705
3991,3.5930132
3992,3.574665374
3993,3.570518226
3994,3.58360385
3995,3.583852932
3996,3.605449409
3997,3.596442389
3998,3.610149375
3999,3.60113354
4000,3.593265835
