Raman Shift,Intensity
91.45642,59.18366
91.93854,59.63585
92.42065,60.27084
92.90277,61.0492
93.38489,61.88973
93.867,62.60211
94.34912,63.17469
94.83124,63.55639
95.31335,63.63187
95.79547,63.39552
96.27759,62.88214
96.7597,61.91504
97.24182,60.54689
97.72394,59.44358
98.20605,59.02672
98.68817,59.22984
99.17029,59.22599
99.6524,58.95543
100.1345,58.55599
100.6166,58.36615
101.0988,58.47191
101.5809,58.40145
102.063,57.80561
102.5451,56.52623
103.0272,55.48662
103.5093,54.76157
103.9915,54.31463
104.4736,53.99894
104.9557,53.92629
105.4378,53.82616
105.9199,53.46376
106.402,52.49854
106.8842,51.90991
107.3663,51.98009
107.8484,52.72147
108.3305,53.09515
108.8126,52.87908
109.2947,52.41732
109.7769,52.02388
110.259,51.66733
110.7411,51.41181
111.2232,51.4259
111.7053,51.91439
112.1874,51.77927
112.6696,50.21157
113.1517,48.1637
113.6338,46.8698
114.1159,47.23564
114.598,47.79377
115.0801,48.02702
115.5623,47.77122
116.0444,47.43297
116.5265,47.03302
117.0086,46.62015
117.4907,46.31091
117.9728,46.34639
118.455,46.37225
118.9371,46.14132
119.4192,45.44047
119.9013,44.72597
120.3834,44.23285
120.8655,43.92663
121.3477,43.6713
121.8298,43.39595
122.3119,43.13365
122.794,42.91841
123.2761,42.73519
123.7582,42.6256
124.2404,42.78892
124.7225,43.18438
125.2046,43.30803
125.6867,42.55738
126.1688,41.27571
126.6509,40.08954
127.1331,39.25431
127.6152,38.65026
128.0973,38.06324
128.5794,37.47973
129.0615,37.07742
129.5436,37.15172
130.0258,37.61346
130.5079,38.06666
130.99,38.39675
131.4721,38.58483
131.9542,38.58427
132.4363,38.39324
132.9185,38.01406
133.4006,37.16703
133.8827,35.85176
134.3648,35.07787
134.8469,35.85011
135.329,38.00786
135.8112,39.13657
136.2933,38.86962
136.7754,37.71346
137.2575,36.66817
137.7396,35.67962
138.2217,35.03356
138.7039,35.14888
139.186,36.23079
139.6681,36.50879
140.1502,35.41644
140.6323,33.43551
141.1144,32.78673
141.5966,34.01069
142.0787,35.53745
142.5608,36.17134
143.0429,35.67707
143.525,34.92404
144.0071,33.8388
144.4893,32.46674
144.9714,31.80472
145.4535,32.22696
145.9356,33.00241
146.4177,33.42951
146.8998,33.25678
147.382,33.15169
147.8641,33.35728
148.3462,33.99493
148.8283,34.04958
149.3104,32.83335
149.7925,31.35668
150.2747,30.79699
150.7568,32.487
151.2389,33.73168
151.721,33.73869
152.2031,31.88633
152.6852,30.77805
153.1674,30.95366
153.6495,31.77797
154.1316,32.32936
154.6137,32.14066
155.0958,32.01209
155.5779,32.2711
156.0601,33.26297
156.5422,33.88456
157.0243,33.77411
157.5064,33.19459
157.9885,32.65518
158.4706,32.09392
158.9528,31.72266
159.4349,31.68575
159.917,32.26951
160.3991,32.71781
160.8812,32.50893
161.3633,31.96592
161.8455,31.9367
162.3276,33.41481
162.8097,35.07143
163.2918,36.04844
163.7739,35.60985
164.256,35.19426
164.7382,35.36108
165.2203,36.04826
165.7024,37.01831
166.1845,38.48091
166.6666,40.03727
167.1487,41.30503
167.6309,41.96947
168.113,42.55685
168.5951,43.37917
169.0772,44.41042
169.5593,45.4755
170.0414,46.26368
170.5236,47.09228
171.0057,48.34154
171.4878,50.63023
171.9699,53.02349
172.452,54.59264
172.9341,55.40588
173.4163,56.22549
173.8984,57.71341
174.3805,59.5777
174.8626,61.28416
175.3447,62.37614
175.8268,63.37848
176.309,64.93117
176.7911,67.02461
177.2732,69.28299
177.7553,71.34767
178.2374,73.01183
178.7195,74.1414
179.2017,74.37387
179.6838,74.19456
180.1659,74.27737
180.648,74.62718
181.1301,75.21336
181.6122,76.2441
182.0944,77.55473
182.5765,78.56989
183.0586,78.73268
183.5407,78.48293
184.0228,78.83203
184.5049,79.85172
184.9871,81.10906
185.4692,82.08948
185.9513,82.84639
186.4334,83.61209
186.9155,84.4696
187.3976,85.42111
187.8798,86.50606
188.3619,87.73164
188.844,89.04105
189.3261,90.31911
189.8082,91.58245
190.2903,92.91234
190.7725,94.44472
191.2546,96.13419
191.7367,97.57476
192.2188,98.73486
192.7009,99.70727
193.183,100.5946
193.6652,101.3942
194.1473,102.1471
194.6294,102.8482
195.1115,103.5024
195.5936,104.2401
196.0757,105.1669
196.5579,106.0145
197.04,106.058
197.5221,105.2019
198.0042,104.5625
198.4863,104.9757
198.9684,106.4568
199.4506,107.4369
199.9327,107.7226
200.4148,107.564
200.8969,107.4599
201.379,107.4162
201.8611,107.3942
202.3433,107.316
202.8254,107.1554
203.3075,107.2799
203.7896,107.8053
204.2717,108.5489
204.7538,109.0032
205.236,109.0861
205.7181,109.1768
206.2002,109.5674
206.6823,110.3393
207.1644,110.8438
207.6465,110.9451
208.1287,110.7907
208.6108,110.8236
209.0929,111.0756
209.575,111.4226
210.0571,111.8457
210.5392,112.4171
211.0214,112.7153
211.5035,112.5985
211.9856,112.2214
212.4677,112.1212
212.9498,112.3595
213.4319,112.7421
213.914,113.2491
214.3962,114.0426
214.8783,114.3466
215.3604,113.8909
215.8425,112.926
216.3246,112.5042
216.8067,112.8001
217.2889,113.2882
217.771,113.6605
218.2531,113.8837
218.7352,114.0878
219.2173,114.2862
219.6994,114.4734
220.1816,114.6152
220.6637,114.6943
221.1458,114.7563
221.6279,114.8456
222.11,115.021
222.5921,115.0543
223.0743,114.8523
223.5564,114.4915
224.0385,114.3292
224.5206,114.4349
225.0027,114.637
225.4848,114.835
225.967,115.01
226.4491,115.2461
226.9312,115.6524
227.4133,116.1381
227.8954,116.218
228.3775,115.6084
228.8597,115.0071
229.3418,114.8861
229.8239,115.5405
230.306,115.9776
230.7881,116.0403
231.2702,115.8169
231.7524,115.7396
232.2345,115.9078
232.7166,116.0761
233.1987,116.1128
233.6808,116.0329
234.1629,115.7498
234.6451,115.0287
235.1272,114.079
235.6093,113.8758
236.0914,114.8845
236.5735,115.9996
237.0556,116.6154
237.5378,116.586
238.0199,116.3612
238.502,115.837
238.9841,115.1325
239.4662,114.7831
239.9483,115.0696
240.4305,115.3336
240.9126,115.1637
241.3947,114.1465
241.8768,113.637
242.3589,113.912
242.841,114.7221
243.3232,115.1872
243.8053,115.1775
244.2874,114.9943
244.7695,114.7725
245.2516,114.474
245.7337,114.2018
246.2159,113.8969
246.698,113.6239
247.1801,113.6302
247.6622,114.1145
248.1443,114.5732
248.6264,114.7661
249.1086,114.6283
249.5907,114.37
250.0728,113.9166
250.5549,113.3678
251.037,112.9799
251.5191,112.7494
252.0013,112.6888
252.4834,112.8304
252.9655,113.2715
253.4476,113.6704
253.9297,114.0628
254.4118,114.3988
254.894,114.5568
255.3761,114.4551
255.8582,114.3198
256.3403,114.2662
256.8224,114.3711
257.3046,114.2803
257.7867,113.8981
258.2688,113.3789
258.7509,113.0317
259.233,112.9216
259.7151,112.8524
260.1973,112.7339
260.6794,112.528
261.1615,112.4272
261.6436,112.3664
262.1257,112.467
262.6078,113.0654
263.09,114.5195
263.5721,115.6049
264.0542,115.779
264.5363,114.8655
265.0184,114.2476
265.5005,113.9775
265.9827,113.9304
266.4648,113.9355
266.9469,113.996
267.429,114.1008
267.9111,114.2453
268.3932,114.4273
268.8754,114.6675
269.3575,114.9773
269.8396,115.3222
270.3217,115.6791
270.8038,116.0764
271.2859,116.364
271.7681,116.4964
272.2502,116.4742
272.7323,116.2577
273.2144,115.6934
273.6965,115.2535
274.1786,115.6132
274.6608,116.9886
275.1429,118.0007
275.625,118.2397
276.1071,117.8083
276.5892,117.4565
277.0714,117.1976
277.5535,116.9973
278.0356,116.8106
278.5177,116.6285
278.9998,116.5509
279.4819,116.6168
279.9641,116.7979
280.4462,117.0243
280.9283,117.338
281.4104,117.5171
281.8925,117.2436
282.3746,116.5074
282.8568,116.123
283.3389,116.3324
283.821,116.8954
284.3031,117.1409
284.7852,117.0489
285.2673,116.8428
285.7495,116.6223
286.2316,116.3988
286.7137,116.3596
287.1958,116.6473
287.6779,116.9584
288.16,116.4488
288.6422,115.1008
289.1243,113.9853
289.6064,114.0477
290.0885,115.0258
290.5706,115.5145
291.0527,115.2809
291.5349,114.7733
292.017,114.7668
292.4991,115.2115
292.9812,115.5673
293.4633,115.4359
293.9454,114.9727
294.4276,114.676
294.9097,114.5903
295.3918,114.6058
295.8739,114.6045
296.356,114.5917
296.8381,114.5898
297.3203,114.5929
297.8024,114.6178
298.2845,114.7641
298.7666,115.0565
299.2487,115.242
299.7308,114.9603
300.213,114.3492
300.6951,113.8108
301.1772,113.5999
301.6593,113.5077
302.1414,113.1547
302.6235,112.5518
303.1057,112.0516
303.5878,112.1111
304.0699,112.469
304.552,112.635
305.0341,112.3276
305.5162,111.8741
305.9984,111.664
306.4805,111.6551
306.9626,111.5421
307.4447,111.0262
307.9268,110.3108
308.4089,109.6454
308.8911,109.0262
309.3732,108.5788
309.8553,108.5243
310.3374,108.7588
310.8195,108.9306
311.3016,108.9203
311.7838,108.7155
312.2659,108.2195
312.748,107.2105
313.2301,106.4035
313.7122,106.4735
314.1943,107.0505
314.6765,107.3547
315.1586,106.768
315.6407,105.9888
316.1228,105.4101
316.6049,105.0797
317.087,104.9797
317.5692,105.3358
318.0513,105.8672
318.5334,106.1785
319.0155,106.0077
319.4976,105.7068
319.9797,105.3633
320.4619,104.9693
320.944,104.7249
321.4261,104.7558
321.9082,104.9356
322.3903,105.1451
322.8724,105.8152
323.3546,106.0506
323.8367,105.222
324.3188,103.393
324.8009,102.3428
325.283,103.052
325.7651,104.2088
326.2473,104.9645
326.7294,105.0572
327.2115,104.9643
327.6936,104.6646
328.1757,104.1947
328.6578,103.7144
329.14,102.9304
329.6221,102.3861
330.1042,102.3476
330.5863,103.4249
331.0684,103.9923
331.5505,103.7785
332.0327,103.1013
332.5148,102.6548
332.9969,102.4733
333.479,102.4756
333.9611,102.7064
334.4432,103.31
334.9254,103.5288
335.4075,103.2216
335.8896,102.6415
336.3717,102.1086
336.8538,101.5985
337.3359,101.201
337.818,100.9375
338.3001,100.8086
338.7823,100.8427
339.2644,101.0786
339.7465,101.4039
340.2286,101.7829
340.7107,102.2708
341.1928,102.4765
341.675,102.304
342.1571,101.8025
342.6392,101.036
343.1213,99.90891
343.6034,98.9943
344.0855,98.84114
344.5677,99.41417
345.0498,99.77149
345.5319,99.7355
346.014,99.54147
346.4961,99.75813
346.9782,100.3611
347.4604,100.7367
347.9425,100.2047
348.4246,99.10912
348.9067,98.82507
349.3888,99.52642
349.8709,100.5307
350.3531,101.1836
350.8352,101.4836
351.3173,101.4269
351.7994,100.647
352.2815,99.62939
352.7636,99.22287
353.2458,99.42657
353.7279,99.82737
354.21,100.2146
354.6921,100.5393
355.1742,100.7152
355.6563,100.6896
356.1385,100.5328
356.6206,100.1985
357.1027,99.7421
357.5848,99.44646
358.0669,99.72373
358.549,100.1176
359.0312,100.1549
359.5133,99.59275
359.9954,99.01145
360.4775,98.73277
360.9596,98.67907
361.4417,98.68771
361.9239,98.66114
362.406,98.70308
362.8881,98.93578
363.3702,99.43882
363.8523,99.76936
364.3344,99.71484
364.8166,99.43652
365.2987,99.11565
365.7808,98.46342
366.2629,98.11267
366.745,98.49803
367.2271,99.611
367.7093,100.1661
368.1914,99.52931
368.6735,98.59285
369.1556,97.92811
369.6377,97.53603
370.1198,97.47124
370.602,98.0427
371.0841,98.986
371.5662,99.32009
372.0483,98.63223
372.5304,97.83062
373.0125,97.25493
373.4947,96.90329
373.9768,96.83138
374.4589,97.22081
374.941,97.74363
375.4231,97.83152
375.9052,97.32232
376.3874,96.84096
376.8695,96.58961
377.3516,96.56119
377.8337,96.49305
378.3158,96.36958
378.7979,96.25365
379.2801,96.22871
379.7622,96.30156
380.2443,96.33234
380.7264,96.29736
381.2085,96.20059
381.6906,95.98945
382.1728,95.65891
382.6549,95.44002
383.137,95.58591
383.6191,95.99414
384.1012,96.24673
384.5833,96.27957
385.0655,96.22523
385.5476,96.27416
386.0297,96.39083
386.5118,96.44646
386.9939,96.2899
387.476,96.07215
387.9582,96.02327
388.4403,96.14932
388.9224,96.3337
389.4045,96.60636
389.8866,96.84717
390.3687,96.87518
390.8509,96.48384
391.333,96.0233
391.8151,95.83076
392.2972,95.81112
392.7793,95.57357
393.2614,94.48562
393.7436,93.38825
394.2257,92.90324
394.7078,93.34376
395.1899,93.91042
395.672,94.44223
396.1541,94.89896
396.6363,95.21644
397.1184,95.54357
397.6005,95.57485
398.0826,95.06889
398.5647,93.92592
399.0468,93.03358
399.529,92.54868
400.0111,92.3083
400.4932,92.17917
400.9753,92.14104
401.4574,92.24859
401.9395,92.61327
402.4217,93.15067
402.9038,93.42432
403.3859,93.21976
403.868,93.06744
404.3501,93.30078
404.8322,94.1535
405.3144,94.51128
405.7965,94.17095
406.2786,93.57298
406.7607,93.52607
407.2428,94.18113
407.7249,94.54998
408.2071,94.20497
408.6892,93.27212
409.1713,92.44956
409.6534,91.69025
410.1355,91.30908
410.6176,91.96507
411.0998,93.41142
411.5819,94.10329
412.064,93.52454
412.5461,92.42497
413.0282,91.99707
413.5103,92.15838
413.9925,92.4054
414.4746,92.49255
414.9567,92.46352
415.4388,92.34048
415.9209,92.10647
416.403,91.94303
416.8852,92.20304
417.3673,92.60123
417.8494,92.67564
418.3315,91.68065
418.8136,90.77589
419.2957,90.94266
419.7779,92.00159
420.26,92.76171
420.7421,92.43359
421.2242,91.74857
421.7063,91.22107
422.1884,90.90948
422.6706,90.80913
423.1527,91.13203
423.6348,91.64058
424.1169,91.88945
424.599,91.65865
425.0811,91.3096
425.5633,90.84347
426.0454,90.18811
426.5275,89.94284
427.0096,90.43317
427.4917,91.07126
427.9738,91.3624
428.456,91.11674
428.9381,90.91235
429.4202,90.7976
429.9023,90.77095
430.3844,90.89234
430.8665,91.28527
431.3487,91.47038
431.8308,91.03838
432.3129,89.93642
432.795,89.37186
433.2771,89.42327
433.7592,89.84734
434.2414,90.55653
434.7235,91.49615
435.2056,91.95702
435.6877,91.49345
436.1698,90.56876
436.6519,90.1872
437.1341,90.32645
437.6162,90.54499
438.0983,90.54977
438.5804,90.40677
439.0625,90.16335
439.5446,89.74414
440.0268,89.51093
440.5089,90.08684
440.991,91.07997
441.4731,91.68125
441.9552,91.18984
442.4373,90.46102
442.9195,90.00576
443.4016,89.84003
443.8837,89.75981
444.3658,89.66
444.8479,89.62151
445.33,89.71799
445.8122,90.25298
446.2943,90.54275
446.7764,90.20616
447.2585,89.5323
447.7406,89.26388
448.2227,90.05628
448.7049,90.65479
449.187,90.62769
449.6691,89.83605
450.1512,89.24938
450.6333,88.86431
451.1154,88.69577
451.5976,88.85936
452.0797,89.56962
452.5618,89.8573
453.0439,89.41167
453.526,88.53468
454.0081,88.17105
454.4903,88.38499
454.9724,88.69376
455.4545,88.83305
455.9366,88.82758
456.4187,88.87099
456.9008,88.97584
457.383,89.0858
457.8651,89.158
458.3472,89.18295
458.8293,89.12357
459.3114,88.93416
459.7935,88.68651
460.2757,88.38433
460.7578,88.06703
461.2399,87.92746
461.722,88.38418
462.2041,88.91097
462.6862,88.92231
463.1684,88.21085
463.6505,87.55385
464.1326,87.3538
464.6147,87.44756
465.0968,87.62375
465.5789,87.87028
466.0611,88.13921
466.5432,88.49149
467.0253,88.90205
467.5074,89.11614
467.9895,89.0032
468.4716,88.76858
468.9538,88.48306
469.4359,88.0218
469.918,87.79986
470.4001,87.92892
470.8822,88.21668
471.3643,88.39843
471.8465,88.49306
472.3286,88.39807
472.8107,87.95692
473.2928,87.29363
473.7749,87.19869
474.257,87.76792
474.7392,88.4053
475.2213,88.62534
475.7034,88.49479
476.1855,88.50547
476.6676,88.7532
477.1497,88.99899
477.6319,88.83134
478.114,88.37424
478.5961,88.03197
479.0782,88.0536
479.5603,88.23714
480.0424,88.42348
480.5246,88.59641
481.0067,88.62176
481.4888,88.17545
481.9709,87.67673
482.453,87.54219
482.9352,88.01695
483.4173,88.44186
483.8994,88.42346
484.3815,88.22022
484.8636,88.22633
485.3457,88.72963
485.8279,89.24483
486.31,89.77458
486.7921,90.30779
487.2742,90.33992
487.7563,89.34953
488.2384,88.38981
488.7206,88.08537
489.2027,88.72489
489.6848,89.23489
490.1669,89.54448
490.649,89.78663
491.1311,90.24723
491.6133,90.98608
492.0954,91.50135
492.5775,91.60716
493.0596,91.37721
493.5417,91.03007
494.0238,90.56355
494.506,90.13457
494.9881,89.79133
495.4702,89.57897
495.9523,89.65592
496.4344,90.09061
496.9165,90.58902
497.3987,90.9348
497.8808,91.12847
498.3629,91.16408
498.845,90.79505
499.3271,90.47491
499.8092,90.64595
500.2914,91.19776
500.7735,91.50392
501.2556,91.0305
501.7377,90.46084
502.2198,90.20989
502.7019,90.44553
503.1841,90.68363
503.6662,90.9939
504.1483,91.22231
504.6304,91.15791
505.1125,90.41494
505.5946,90.0157
506.0768,90.22423
506.5589,90.90807
507.041,91.39841
507.5231,91.64147
508.0052,91.83849
508.4873,92.12564
508.9695,92.50041
509.4516,92.69803
509.9337,92.68406
510.4158,92.62627
510.8979,92.82422
511.38,93.18034
511.8622,93.18588
512.3443,92.46861
512.8264,91.69018
513.3085,91.85677
513.7906,92.75443
514.2728,93.61537
514.7549,94.25742
515.237,94.51505
515.7191,94.03549
516.2012,92.74813
516.6833,91.70764
517.1655,91.52744
517.6476,91.73483
518.1297,91.92774
518.6118,92.02999
519.0939,92.10519
519.576,92.10152
520.0582,92.08086
520.5403,92.19703
521.0224,92.61876
521.5045,92.93502
521.9866,92.98605
522.4688,92.77199
522.9509,92.73568
523.433,92.94573
523.9151,93.17006
524.3972,93.22178
524.8793,93.09622
525.3615,92.93532
525.8436,92.71888
526.3257,92.55525
526.8078,92.63367
527.2899,92.91871
527.772,93.24888
528.2542,93.5865
528.7363,93.91016
529.2184,94.30833
529.7005,94.71938
530.1826,94.82816
530.6647,94.08498
531.1469,93.1719
531.629,92.66595
532.1111,92.69247
532.5932,92.92844
533.0753,93.48058
533.5574,94.07909
534.0396,94.43494
534.5217,94.30965
535.0038,94.16626
535.4859,94.00724
535.968,93.87369
536.4501,93.89978
536.9323,94.13653
537.4144,94.44902
537.8965,94.81728
538.3786,95.24323
538.8607,95.58324
539.3428,95.84895
539.825,95.9804
540.3071,95.75972
540.7892,95.25758
541.2713,95.18015
541.7534,95.69772
542.2355,96.49512
542.7177,97.32728
543.1998,98.11098
543.6819,98.55624
544.164,98.34307
544.6461,97.86063
545.1282,97.31783
545.6104,96.76523
546.0925,96.48649
546.5746,96.82518
547.0567,97.34957
547.5388,97.77969
548.0209,98.04876
548.5031,98.31303
548.9852,98.60601
549.4673,98.91104
549.9494,99.19715
550.4315,99.23302
550.9136,99.63557
551.3958,100.7108
551.8779,102.1353
552.36,102.8653
552.8421,102.7209
553.3242,102.5299
553.8063,102.69
554.2885,103.1297
554.7706,103.1887
555.2527,102.8245
555.7348,102.5314
556.2169,102.8436
556.699,103.5577
557.1812,104.1964
557.6633,104.7191
558.1454,105.0239
558.6275,104.6814
559.1096,104.1011
559.5917,103.9982
560.0739,105.4646
560.556,106.7201
561.0381,106.61
561.5202,105.4437
562.0023,104.6085
562.4844,104.3433
562.9666,104.5795
563.4487,105.5293
563.9308,107.4927
564.4129,108.5724
564.895,108.3089
565.3771,107.6612
565.8593,107.397
566.3414,107.5806
566.8235,107.9275
567.3056,108.5359
567.7877,109.1073
568.2698,108.8562
568.752,107.8531
569.2341,107.3447
569.7162,108.1075
570.1983,109.4517
570.6804,110.107
571.1625,110.1507
571.6447,110.1384
572.1268,110.5241
572.6089,110.9796
573.091,111.1273
573.5731,110.88
574.0552,110.7059
574.5374,110.7903
575.0195,111.0619
575.5016,111.4528
575.9837,112.1564
576.4658,112.7182
576.9479,113.0592
577.4301,113.2419
577.9122,113.383
578.3943,113.46
578.8764,113.5357
579.3585,113.6307
579.8406,113.7375
580.3228,113.7995
580.8049,113.8073
581.287,113.8293
581.7691,113.9153
582.2512,114.0565
582.7333,114.2224
583.2155,114.4164
583.6975,114.61
584.1796,114.9496
584.6617,115.2373
585.1439,115.0916
585.626,114.1293
586.1081,113.2237
586.5902,112.9486
587.0723,113.1037
587.5544,113.3032
588.0366,113.3611
588.5187,113.5202
589.0008,113.9305
589.4829,114.5714
589.965,115.0564
590.4471,115.3832
590.9293,115.548
591.4114,115.4998
591.8935,115.1881
592.3756,115.0446
592.8577,115.1293
593.3398,115.2173
593.822,115.0413
594.3041,114.6358
594.7862,114.2313
595.2683,113.8192
595.7504,113.5596
596.2325,113.9045
596.7147,114.5839
597.1968,114.8893
597.6789,114.1316
598.161,113.2091
598.6431,112.8636
599.1252,112.9565
599.6074,112.8194
600.0895,111.8049
600.5716,110.849
601.0537,110.4818
601.5358,110.9231
602.0179,111.0912
602.5001,110.8512
602.9822,110.4559
603.4643,110.1246
603.9464,109.9467
604.4285,109.3997
604.9106,108.2893
605.3928,107.0904
605.8749,106.5973
606.357,106.7556
606.8391,106.875
607.3212,106.7361
607.8033,106.4593
608.2855,106.1209
608.7676,105.7757
609.2497,105.6156
609.7318,106.1314
610.2139,106.5926
610.696,106.3195
611.1782,105.3061
611.6603,104.3285
612.1424,103.4764
612.6245,102.8689
613.1066,102.6298
613.5887,103.0436
614.0709,103.1858
614.553,103.0431
615.0351,102.6436
615.5172,101.928
615.9993,100.7567
616.4814,99.87557
616.9636,99.3987
617.4457,99.24889
617.9278,99.49326
618.4099,100.0596
618.892,100.2172
619.3741,99.4235
619.8563,98.22343
620.3384,97.34235
620.8205,96.75931
621.3026,96.37367
621.7847,96.37065
622.2668,96.36552
622.749,96.03465
623.2311,95.31961
623.7132,94.63357
624.1953,94.01495
624.6774,93.51549
625.1595,93.19589
625.6417,93.33315
626.1238,93.07317
626.6059,92.20043
627.088,91.17406
627.5701,90.64402
628.0522,90.66352
628.5344,90.68602
629.0165,90.63171
629.4986,90.46736
629.9807,90.05191
630.4628,89.43194
630.9449,88.87451
631.4271,88.57322
631.9092,88.35381
632.3913,88.0127
632.8734,87.56761
633.3555,87.15546
633.8376,86.95007
634.3198,86.71001
634.8019,86.22225
635.284,85.37364
635.7661,84.76952
636.2482,84.63024
636.7303,84.61536
637.2125,84.50734
637.6946,84.29755
638.1767,84.00151
638.6588,83.58081
639.1409,83.14491
639.623,82.87271
640.1052,82.75338
640.5873,82.64421
641.0694,82.5361
641.5515,82.37807
642.0336,82.04399
642.5157,81.59209
642.9979,81.18575
643.48,80.92409
643.9621,80.72487
644.4442,80.50645
644.9263,80.28799
645.4084,80.19388
645.8906,80.54226
646.3727,80.78271
646.8548,80.5476
647.3369,79.72788
647.819,79.33217
648.3011,79.62975
648.7833,79.95296
649.2654,79.77409
649.7475,79.04666
650.2296,78.2981
650.7117,77.51315
651.1938,76.8727
651.676,76.71217
652.1581,76.89806
652.6402,77.02708
653.1223,76.99108
653.6044,76.87062
654.0865,76.69148
654.5687,76.48441
655.0508,76.30815
655.5329,76.15703
656.015,76.06638
656.4971,76.13015
656.9792,76.29265
657.4614,76.26126
657.9435,75.8736
658.4256,75.5053
658.9077,75.27539
659.3898,75.17952
659.8719,75.1382
660.3541,75.17171
660.8362,75.16441
661.3183,74.99367
661.8004,74.70952
662.2825,74.53439
662.7646,74.48952
663.2468,74.39457
663.7289,73.89955
664.211,73.33381
664.6931,73.19636
665.1752,73.8189
665.6573,74.28284
666.1395,74.09849
666.6216,73.56888
667.1037,73.06667
667.5858,72.42909
668.0679,72.12217
668.55,72.34519
669.0322,72.84868
669.5143,73.11189
669.9964,73.1321
670.4785,72.89784
670.9606,72.24397
671.4427,71.44384
671.9249,71.38466
672.407,71.97961
672.8891,72.53916
673.3712,72.69087
673.8533,72.56371
674.3354,72.17477
674.8176,71.56683
675.2997,71.12809
675.7818,71.25269
676.2639,71.4613
676.746,71.4473
677.2281,71.11254
677.7103,70.80643
678.1924,70.47498
678.6745,70.24464
679.1566,70.25875
679.6387,70.61416
680.1208,70.72265
680.603,70.50224
681.0851,70.16943
681.5672,69.91363
682.0493,69.76062
682.5314,69.8989
683.0135,70.56688
683.4957,71.07446
683.9778,70.32171
684.4599,68.92439
684.942,68.06806
685.4241,68.82282
685.9063,69.51689
686.3884,69.3658
686.8705,68.63332
687.3526,68.27238
687.8347,68.67423
688.3168,68.94044
688.799,68.73885
689.2811,68.18002
689.7632,68.13136
690.2453,68.69817
690.7274,69.05621
691.2095,68.47627
691.6917,67.33586
692.1738,66.73348
692.6559,66.67828
693.138,66.91054
693.6201,67.61718
694.1022,68.29404
694.5844,68.33656
695.0665,67.54751
695.5486,66.94418
696.0307,67.06112
696.5128,67.3821
696.9949,67.48582
697.4771,67.15447
697.9592,67.07664
698.4413,67.43465
698.9234,67.81389
699.4055,67.63202
699.8876,66.87771
700.3698,66.23345
700.8519,65.79964
701.334,65.58085
701.8161,65.74288
702.2982,66.13087
702.7803,66.34002
703.2625,65.98194
703.7446,65.68958
704.2267,66.13704
704.7088,66.94994
705.1909,67.30041
705.673,66.32168
706.1552,65.58388
706.6373,65.57814
707.1194,66.1281
707.6015,66.43047
708.0836,66.44517
708.5657,66.3086
709.0479,65.97779
709.53,65.54954
710.0121,65.50089
710.4942,65.81776
710.9763,66.15557
711.4584,66.24928
711.9406,66.25065
712.4227,66.409
712.9048,66.72784
713.3869,66.88076
713.869,66.48674
714.3511,66.03793
714.8333,65.89996
715.3154,66.28924
715.7975,66.39365
716.2796,66.03738
716.7617,65.61056
717.2438,65.43567
717.726,65.54406
718.2081,65.58318
718.6902,65.52235
719.1723,65.43503
719.6544,65.41113
720.1365,65.42826
720.6187,65.42942
721.1008,65.39863
721.5829,65.35763
722.065,65.35226
722.5471,65.33538
723.0292,65.24325
723.5114,64.97068
723.9935,64.72605
724.4756,64.4028
724.9577,64.17181
725.4398,64.4168
725.9219,65.40574
726.4041,66.01631
726.8862,65.91335
727.3683,65.38665
727.8504,65.07504
728.3325,64.96526
728.8146,64.98222
729.2968,65.20887
729.7789,65.44619
730.261,65.44804
730.7431,65.26544
731.2252,65.06771
731.7073,64.85469
732.1895,64.71266
732.6716,64.72798
733.1537,64.88503
733.6358,64.92775
734.1179,64.75409
734.6,64.6465
735.0822,64.77071
735.5643,65.08902
736.0464,65.15772
736.5285,64.96117
737.0106,64.8346
737.4927,65.24051
737.9749,65.79188
738.457,65.72919
738.9391,65.03378
739.4212,64.35444
739.9033,64.01181
740.3854,63.87305
740.8676,63.90055
741.3497,64.17905
741.8318,64.22903
742.3139,63.73875
742.796,63.33209
743.2781,63.53251
743.7603,64.48615
744.2424,64.95171
744.7245,64.81928
745.2066,64.52937
745.6887,64.60668
746.1708,64.88606
746.653,64.88953
747.1351,64.48315
747.6172,64.08527
748.0993,63.94622
748.5814,64.01229
749.0635,64.2431
749.5457,64.92422
750.0278,65.29321
750.5099,65.04975
750.992,64.58057
751.4741,64.30923
751.9562,64.25903
752.4384,64.32745
752.9205,64.52643
753.4026,64.78028
753.8847,65.13087
754.3668,65.46453
754.8489,65.2564
755.3311,63.99652
755.8132,62.80417
756.2953,62.81329
756.7774,63.55933
757.2595,64.22617
757.7416,64.699
758.2238,64.90752
758.7059,64.66211
759.188,64.19167
759.6701,63.98658
760.1522,64.14638
760.6343,64.24727
761.1165,64.17165
761.5986,63.9842
762.0807,63.7664
762.5628,63.54988
763.0449,63.52198
763.527,63.92982
764.0092,64.42113
764.4913,64.70354
764.9734,64.80085
765.4555,64.79379
765.9376,64.5394
766.4197,64.36494
766.9019,64.47856
767.384,64.78812
767.8661,64.844
768.3482,64.56126
768.8303,64.27187
769.3124,64.11294
769.7946,64.04723
770.2767,63.90251
770.7588,63.69683
771.2409,63.59933
771.723,63.84546
772.2051,64.15655
772.6873,64.17906
773.1694,63.96426
773.6515,63.93244
774.1336,64.5131
774.6157,65.0359
775.0978,65.19591
775.58,65.00633
776.0621,64.77267
776.5442,64.44498
777.0263,64.21672
777.5084,64.2479
777.9905,64.47313
778.4727,64.56984
778.9548,64.54536
779.4369,64.537
779.919,64.75612
780.4011,64.96343
780.8832,64.8487
781.3654,64.39967
781.8475,64.0865
782.3296,64.1433
782.8117,64.30387
783.2938,64.48793
783.7759,64.72202
784.2581,64.57413
784.7402,63.85687
785.2223,63.35144
785.7044,63.87223
786.1865,65.07558
786.6686,65.5243
787.1508,65.18683
787.6329,64.77221
788.115,64.88573
788.5971,65.12807
789.0792,65.01439
789.5613,64.41685
790.0435,64.19524
790.5256,65.10427
791.0077,65.9528
791.4898,66.03508
791.9719,65.18221
792.454,64.76845
792.9362,64.86609
793.4183,65.12786
793.9004,65.38464
794.3825,65.5689
794.8646,65.43435
795.3467,64.95966
795.8289,64.42587
796.311,63.88968
796.7931,63.48693
797.2752,63.41074
797.7573,63.8035
798.2394,63.95643
798.7216,63.42247
799.2037,63.03132
799.6858,63.43061
800.1679,64.79421
800.65,65.61656
801.1321,65.88466
801.6143,65.77618
802.0964,65.14246
802.5785,64.33764
803.0606,64.13386
803.5427,64.65551
804.0248,65.16125
804.507,65.1511
804.9891,64.99306
805.4712,64.98022
805.9533,65.22977
806.4354,65.33663
806.9175,65.22404
807.3997,65.07661
807.8818,65.01796
808.3639,65.04762
808.846,65.17966
809.3281,65.42945
809.8102,65.59699
810.2924,65.44903
810.7745,65.13276
811.2566,64.79593
811.7387,64.44303
812.2208,64.26762
812.7029,64.44335
813.1851,64.75925
813.6672,65.1072
814.1493,65.54292
814.6314,65.72459
815.1135,65.57478
815.5956,65.36013
816.0778,65.29458
816.5599,65.34826
817.042,65.41438
817.5241,65.48813
818.0062,65.48518
818.4883,65.16515
818.9705,64.84313
819.4526,64.89719
819.9347,65.44019
820.4168,65.81898
820.8989,65.87634
821.381,65.74504
821.8632,65.41152
822.3453,64.82214
822.8274,64.61239
823.3095,64.83273
823.7916,65.15022
824.2737,65.39672
824.7559,65.52402
825.238,65.31339
825.7201,64.77242
826.2022,64.40504
826.6843,64.6019
827.1664,65.01418
827.6486,65.51235
828.1307,66.14722
828.6128,66.27769
829.0949,65.57982
829.577,64.93897
830.0591,64.91641
830.5413,65.44019
831.0234,65.68578
831.5055,65.65537
831.9876,65.55286
832.4697,65.45963
832.9518,65.41176
833.434,65.49268
833.9161,65.69189
834.3982,65.81058
834.8803,65.65874
835.3624,65.53346
835.8445,65.60875
836.3267,65.86858
836.8088,65.91148
837.2909,65.70317
837.773,65.43276
838.2551,65.16566
838.7372,64.92503
839.2194,64.81655
839.7015,64.81049
840.1836,64.73351
840.6657,64.0432
841.1478,63.64586
841.6299,64.465
842.1121,66.31209
842.5942,67.31399
843.0763,67.07176
843.5584,66.51751
844.0405,65.81618
844.5226,65.06396
845.0048,64.61337
845.4869,64.46297
845.969,64.60253
846.4511,65.26887
846.9332,66.01663
847.4153,66.44807
847.8975,66.56893
848.3796,66.39485
848.8617,65.47932
849.3438,64.79806
849.8259,64.80991
850.308,65.19842
850.7902,65.06779
851.2723,64.29063
851.7544,63.79298
852.2365,63.91192
852.7186,64.33285
853.2007,64.63123
853.6829,64.77462
854.165,64.66429
854.6471,63.88626
855.1292,63.3279
855.6113,63.60867
856.0934,64.34901
856.5756,64.84483
857.0577,64.91071
857.5398,65.06259
858.0219,65.41159
858.504,65.78879
858.9861,65.91603
859.4683,65.82182
859.9504,65.63729
860.4325,65.36933
860.9146,65.10178
861.3967,65.02913
861.8788,64.95521
862.361,64.60171
862.8431,63.46565
863.3252,62.87202
863.8073,63.24162
864.2894,63.84921
864.7715,63.9482
865.2537,63.50691
865.7358,63.25193
866.2179,63.26243
866.7,63.27983
867.1821,62.91857
867.6642,62.44896
868.1464,62.32504
868.6285,62.67419
869.1106,62.93614
869.5927,62.79242
870.0748,62.57241
870.5569,62.49156
871.0391,62.56861
871.5212,62.65112
872.0033,62.73588
872.4854,62.82879
872.9675,62.96727
873.4496,63.10691
873.9318,63.11167
874.4139,62.9882
874.896,62.87498
875.3781,62.84281
875.8602,62.85547
876.3423,62.92796
876.8245,63.05484
877.3066,63.07204
877.7887,62.96134
878.2708,62.77906
878.7529,62.48507
879.235,62.16817
879.7172,62.25716
880.1993,62.66652
880.6814,62.84073
881.1635,62.20632
881.6456,61.46938
882.1277,61.09539
882.6099,61.04035
883.092,61.16702
883.5741,61.69171
884.0562,62.05156
884.5383,62.13539
885.0204,62.02405
885.5026,61.8922
885.9847,61.73437
886.4668,61.44383
886.9489,60.87537
887.431,60.42646
887.9131,60.77751
888.3953,61.46581
888.8774,61.78611
889.3595,61.16951
889.8416,60.74418
890.3237,60.79725
890.8058,60.99476
891.288,60.96728
891.7701,60.68808
892.2522,60.51974
892.7343,60.48596
893.2164,60.59932
893.6985,61.04743
894.1807,61.57643
894.6628,61.77876
895.1449,61.54219
895.627,61.33905
896.1091,61.46992
896.5912,61.56813
897.0734,61.38925
897.5555,60.90404
898.0376,60.50975
898.5197,60.20361
899.0018,60.02904
899.4839,60.10391
899.9661,60.29998
900.4482,60.40772
900.9303,60.42076
901.4124,60.33133
901.8945,60.03945
902.3766,59.73791
902.8588,59.45455
903.3409,59.2269
903.823,59.27692
904.3051,59.72221
904.7872,59.96087
905.2693,59.71151
905.7515,59.24097
906.2336,59.03307
906.7157,59.05682
907.1978,59.23192
907.6799,59.77187
908.162,60.14219
908.6442,59.92208
909.1263,59.43855
909.6084,59.25706
910.0905,59.55668
910.5726,59.71654
911.0547,59.69253
911.5369,59.49361
912.019,58.96675
912.5011,58.28257
912.9832,57.96366
913.4653,58.14005
913.9474,58.40991
914.4296,58.58426
914.9117,58.69721
915.3938,58.7977
915.8759,58.93531
916.358,58.80601
916.8401,58.27357
917.3223,57.80857
917.8044,57.82478
918.2865,58.17403
918.7686,58.31333
919.2507,58.25106
919.7328,58.11731
920.215,57.95426
920.6971,57.78197
921.1792,57.52558
921.6613,57.23862
922.1434,57.30583
922.6255,58.01393
923.1077,58.39492
923.5898,58.06139
924.0719,57.34772
924.554,57.02639
925.0361,57.01484
925.5182,56.98247
926.0004,56.77685
926.4825,56.55891
926.9646,56.34572
927.4467,56.20979
927.9288,56.28885
928.4109,56.80157
928.8931,57.07125
929.3752,57.03329
929.8573,56.81141
930.3394,56.44908
930.8215,56.01608
931.3036,55.75732
931.7858,55.70628
932.2679,55.76276
932.75,55.97875
933.2321,56.18366
933.7142,56.28426
934.1964,56.28143
934.6785,55.9531
935.1606,55.06464
935.6427,54.4449
936.1248,54.69255
936.6069,55.49994
937.0891,55.83152
937.5712,55.75171
938.0533,55.55765
938.5354,55.26179
939.0175,55.04821
939.4996,55.09521
939.9818,55.30584
940.4639,55.38781
940.946,55.25092
941.4281,55.22902
941.9102,55.46528
942.3923,55.6755
942.8745,55.19877
943.3566,54.31559
943.8387,53.89599
944.3208,54.25829
944.8029,54.70844
945.285,54.99815
945.7672,55.10176
946.2493,54.96612
946.7314,54.53856
947.2135,54.09786
947.6956,53.59416
948.1777,53.25048
948.6599,53.38066
949.142,53.77107
949.6241,53.8756
950.1062,53.71555
950.5883,53.58278
951.0704,53.65919
951.5526,53.77693
952.0347,53.92057
952.5168,54.04038
952.9989,53.87536
953.481,53.3107
953.9631,53.04046
954.4453,53.37481
954.9274,53.90075
955.4095,53.84749
955.8916,53.47333
956.3737,53.37391
956.8558,54.06866
957.338,54.43198
957.8201,53.72861
958.3022,52.75431
958.7843,52.23316
959.2664,52.22231
959.7485,52.41449
960.2307,52.83752
960.7128,53.18317
961.1949,53.12667
961.677,52.84673
962.1591,52.56093
962.6412,52.28738
963.1234,52.06486
963.6055,51.91368
964.0876,51.81345
964.5697,51.81168
965.0518,51.84646
965.5339,51.49926
966.0161,50.76968
966.4982,50.50592
966.9803,51.34331
967.4624,52.27705
967.9445,51.94879
968.4266,50.98772
968.9088,50.4402
969.3909,50.97367
969.873,51.39865
970.3551,51.66545
970.8372,51.76672
971.3193,51.64928
971.8015,51.33989
972.2836,51.05288
972.7657,50.80449
973.2478,50.65503
973.7299,50.78939
974.212,50.93736
974.6942,50.81478
975.1763,50.40133
975.6584,50.18134
976.1405,50.23689
976.6226,50.34692
977.1047,50.43837
977.5869,50.5221
978.069,50.69712
978.5511,50.90103
979.0332,50.88811
979.5153,50.30717
979.9974,49.85244
980.4796,50.13716
980.9617,50.66341
981.4438,50.69336
981.9259,49.95001
982.408,49.55546
982.8901,49.62014
983.3723,49.80843
983.8544,49.76683
984.3365,49.61568
984.8186,49.60175
985.3007,49.74184
985.7828,49.84869
986.265,49.89984
986.7471,49.82385
987.2292,49.46863
987.7113,48.95731
988.1934,49.09933
988.6755,49.937
989.1577,50.39496
989.6398,49.92714
990.1219,49.10875
990.604,48.40582
991.0861,47.89669
991.5682,47.72038
992.0504,48.24653
992.5325,48.5989
993.0146,48.62703
993.4967,48.57669
993.9788,48.69898
994.4609,48.9682
994.9431,49.20356
995.4252,49.39487
995.9073,49.39208
996.3894,48.77026
996.8715,48.17841
997.3536,48.17883
997.8358,48.74921
998.3179,49.18169
998.8,49.52439
999.2821,49.53564
999.7642,49.04338
1000.246,48.32775
1000.728,47.96129
1001.211,47.84038
1001.693,47.70683
1002.175,47.42542
1002.657,47.23954
1003.139,47.36344
1003.621,47.55764
1004.103,47.59786
1004.585,47.44989
1005.068,47.34715
1005.55,47.2924
1006.032,47.24347
1006.514,47.04565
1006.996,46.91253
1007.478,47.30424
1007.96,48.08311
1008.442,48.4379
1008.924,47.56807
1009.407,47.02406
1009.889,47.27878
1010.371,47.87295
1010.853,47.77827
1011.335,47.10512
1011.817,46.56848
1012.299,46.31649
1012.781,46.28948
1013.263,46.72058
1013.746,47.1791
1014.228,47.13914
1014.71,46.38093
1015.192,46.28473
1015.674,47.09634
1016.156,47.76568
1016.638,47.4413
1017.12,46.63589
1017.603,46.52372
1018.085,46.92712
1018.567,47.22405
1019.049,47.02509
1019.531,46.80862
1020.013,46.66662
1020.495,46.61639
1020.977,46.76466
1021.459,47.12136
1021.942,47.13901
1022.424,46.70705
1022.906,46.2571
1023.388,46.1459
1023.87,46.24504
1024.352,46.49441
1024.834,46.9042
1025.316,47.12681
1025.799,47.09873
1026.281,46.978
1026.763,46.78687
1027.245,46.58018
1027.727,46.48266
1028.209,46.48526
1028.691,46.57137
1029.173,46.8924
1029.656,47.04258
1030.138,46.49132
1030.62,45.89404
1031.102,46.02702
1031.584,47.11644
1032.066,47.60804
1032.548,47.42822
1033.03,47.07121
1033.512,46.95445
1033.995,46.88471
1034.477,46.50869
1034.959,45.90998
1035.441,45.6912
1035.923,46.53358
1036.405,46.89484
1036.887,46.24078
1037.369,45.22249
1037.851,45.23362
1038.334,46.0047
1038.816,46.4752
1039.298,46.34817
1039.78,46.17806
1040.262,46.35735
1040.744,46.59378
1041.226,46.61311
1041.708,46.38931
1042.191,46.46375
1042.673,46.89079
1043.155,47.15388
1043.637,46.84553
1044.119,46.32701
1044.601,46.14692
1045.083,46.14409
1045.565,45.957
1046.047,45.0083
1046.53,44.60191
1047.012,45.09645
1047.494,45.78504
1047.976,45.76063
1048.458,45.2149
1048.94,45.13255
1049.422,45.57536
1049.904,46.01137
1050.386,46.04228
1050.869,46.0271
1051.351,46.31781
1051.833,46.76448
1052.315,46.63488
1052.797,45.82352
1053.279,45.21134
1053.761,45.00655
1054.243,45.14768
1054.726,45.87202
1055.208,46.7543
1055.69,47.17262
1056.172,46.86002
1056.654,46.50638
1057.136,46.1277
1057.618,45.81146
1058.1,45.62775
1058.583,45.54572
1059.065,45.39722
1059.547,45.22362
1060.029,45.21651
1060.511,45.66573
1060.993,46.08167
1061.475,46.25477
1061.957,46.27446
1062.439,46.25756
1062.922,46.2063
1063.404,46.08125
1063.886,45.87093
1064.368,45.67692
1064.85,45.64393
1065.332,45.63189
1065.814,45.4577
1066.296,45.1319
1066.778,44.9466
1067.261,45.02753
1067.743,44.98931
1068.225,44.65003
1068.707,44.28073
1069.189,44.55726
1069.671,45.17751
1070.153,45.38164
1070.635,44.85508
1071.118,44.39287
1071.6,44.34552
1072.082,44.44071
1072.564,44.51698
1073.046,44.58813
1073.528,44.92489
1074.01,45.49654
1074.492,45.89045
1074.974,45.84253
1075.457,45.58294
1075.939,45.16039
1076.421,44.6829
1076.903,44.32318
1077.385,44.07752
1077.867,44.0046
1078.349,44.14112
1078.831,44.3052
1079.313,44.29975
1079.796,44.22941
1080.278,44.25651
1080.76,44.37634
1081.242,44.49528
1081.724,44.60386
1082.206,44.69336
1082.688,44.81172
1083.17,44.84663
1083.652,44.39879
1084.135,43.6676
1084.617,43.5034
1085.099,44.13709
1085.581,44.78508
1086.063,45.08225
1086.545,45.15053
1087.027,45.04929
1087.509,44.797
1087.992,44.50883
1088.474,44.18322
1088.956,43.95107
1089.438,43.82382
1089.92,43.88514
1090.402,44.49984
1090.884,45.23013
1091.366,45.42514
1091.849,44.69277
1092.331,44.28623
1092.813,44.26724
1093.295,44.36536
1093.777,44.49564
1094.259,44.55273
1094.741,44.17435
1095.223,43.52537
1095.705,43.18368
1096.188,43.59009
1096.67,44.04427
1097.152,44.50815
1097.634,44.86404
1098.116,44.95637
1098.598,44.80926
1099.08,44.5083
1099.562,44.0632
1100.044,43.58784
1100.527,42.85521
1101.009,42.42147
1101.491,42.77456
1101.973,43.62359
1102.455,44.06073
1102.937,44.08499
1103.419,44.14915
1103.901,44.42321
1104.384,44.52828
1104.866,43.76099
1105.348,42.85804
1105.83,42.57536
1106.312,43.05345
1106.794,43.7542
1107.276,44.8322
1107.758,45.49714
1108.24,45.21559
1108.723,44.53852
1109.205,44.18276
1109.687,44.12535
1110.169,44.34593
1110.651,45.30509
1111.133,45.60156
1111.615,44.78892
1112.097,43.96687
1112.579,44.19796
1113.062,45.08784
1113.544,45.12467
1114.026,44.47706
1114.508,44.01658
1114.99,44.44114
1115.472,44.77615
1115.954,44.62993
1116.436,44.30885
1116.919,44.22635
1117.401,44.3581
1117.883,44.34937
1118.365,44.16949
1118.847,43.96763
1119.329,43.84406
1119.811,43.74092
1120.293,43.52166
1120.776,43.29513
1121.258,43.55275
1121.74,44.38877
1122.222,44.69027
1122.704,44.10523
1123.186,43.45188
1123.668,43.56496
1124.15,44.05334
1124.632,44.60505
1125.115,45.19997
1125.597,45.37415
1126.079,45.00793
1126.561,44.60115
1127.043,44.30854
1127.525,44.13071
1128.007,44.06977
1128.489,44.12096
1128.971,44.2957
1129.454,44.67768
1129.936,44.95622
1130.418,45.04655
1130.9,45.15096
1131.382,45.51672
1131.864,45.94231
1132.346,45.67864
1132.828,44.92489
1133.311,44.33891
1133.793,44.15627
1134.275,44.26334
1134.757,44.83703
1135.239,45.4465
1135.721,45.68973
1136.203,45.59394
1136.685,45.29641
1137.167,44.84023
1137.65,44.63488
1138.132,45.33368
1138.614,45.89667
1139.096,45.54354
1139.578,44.85525
1140.06,44.84032
1140.542,45.51998
1141.024,45.77252
1141.506,45.45736
1141.989,45.18281
1142.471,45.59165
1142.953,46.08998
1143.435,46.22645
1143.917,46.04079
1144.399,45.84634
1144.881,45.64754
1145.363,45.41642
1145.846,45.14695
1146.328,44.85967
1146.81,44.33739
1147.292,43.96986
1147.774,44.34322
1148.256,45.60036
1148.738,46.21777
1149.22,46.00102
1149.703,45.76546
1150.185,45.80075
1150.667,45.94512
1151.149,45.98249
1151.631,45.95571
1152.113,45.95982
1152.595,46.08829
1153.077,45.91305
1153.559,45.20381
1154.042,44.70309
1154.524,44.93859
1155.006,45.52686
1155.488,45.5972
1155.97,45.3253
1156.452,45.14003
1156.934,45.31958
1157.416,45.321
1157.898,44.97025
1158.381,44.61977
1158.863,44.5034
1159.345,44.60876
1159.827,45.02304
1160.309,45.64203
1160.791,46.03624
1161.273,45.8591
1161.755,45.61883
1162.238,45.4132
1162.72,45.23431
1163.202,45.01988
1163.684,44.80992
1164.166,44.93577
1164.648,45.37136
1165.13,45.73828
1165.612,45.86115
1166.094,45.8185
1166.577,45.64247
1167.059,45.32566
1167.541,44.66195
1168.023,43.72274
1168.505,43.65208
1168.987,44.57168
1169.469,45.39561
1169.951,45.17859
1170.433,44.82406
1170.916,44.99833
1171.398,45.41967
1171.88,45.2644
1172.362,44.54309
1172.844,44.16615
1173.326,44.33571
1173.808,44.62673
1174.29,44.7447
1174.773,44.79359
1175.255,44.853
1175.737,44.91752
1176.219,44.91593
1176.701,44.84258
1177.183,44.8341
1177.665,44.94893
1178.147,45.0637
1178.63,44.94709
1179.112,44.85199
1179.594,45.13537
1180.076,45.80463
1180.558,46.01069
1181.04,45.70335
1181.522,45.44508
1182.004,45.4858
1182.486,45.58809
1182.969,45.55684
1183.451,45.40532
1183.933,45.08741
1184.415,44.53181
1184.897,44.33522
1185.379,44.55692
1185.861,44.74597
1186.343,44.63228
1186.825,44.42188
1187.308,44.42002
1187.79,44.46389
1188.272,44.26715
1188.754,43.63502
1189.236,43.26178
1189.718,43.18576
1190.2,43.18898
1190.682,43.21987
1191.165,43.17906
1191.647,42.79799
1192.129,42.27988
1192.611,42.04765
1193.093,42.34011
1193.575,42.58168
1194.057,42.79944
1194.539,42.82433
1195.021,42.32324
1195.504,41.6909
1195.986,41.5199
1196.468,41.67187
1196.95,41.70513
1197.432,41.28759
1197.914,41.37798
1198.396,42.15381
1198.878,43.00689
1199.36,43.4039
1199.843,43.48528
1200.325,43.34371
1200.807,43.04852
1201.289,42.85154
1201.771,42.91534
1202.253,42.7802
1202.735,42.3287
1203.217,41.88899
1203.7,41.93043
1204.182,42.1545
1204.664,42.07039
1205.146,41.71575
1205.628,41.56034
1206.11,41.73462
1206.592,41.99987
1207.074,42.3871
1207.557,42.65567
1208.039,42.43549
1208.521,41.94395
1209.003,41.36688
1209.485,40.75399
1209.967,40.59777
1210.449,41.20529
1210.931,41.59966
1211.413,41.52702
1211.896,41.31367
1212.378,41.59069
1212.86,41.9143
1213.342,41.45514
1213.824,40.12423
1214.306,39.34842
1214.788,39.41174
1215.27,39.61509
1215.752,39.82907
1216.235,39.96656
1216.717,39.75344
1217.199,39.45872
1217.681,39.57222
1218.163,40.2075
1218.645,40.40205
1219.127,39.92449
1219.609,39.53202
1220.092,39.46361
1220.574,39.58723
1221.056,39.80972
1221.538,40.04389
1222.02,40.16444
1222.502,40.13844
1222.984,40.04155
1223.466,39.8476
1223.948,39.67524
1224.431,39.53249
1224.913,39.50329
1225.395,39.85531
1225.877,40.32774
1226.359,40.55272
1226.841,40.41324
1227.323,40.28244
1227.805,40.18675
1228.287,39.9884
1228.77,39.55915
1229.252,39.1292
1229.734,39.05262
1230.216,39.15794
1230.698,39.22406
1231.18,39.21529
1231.662,39.15805
1232.144,39.02975
1232.627,38.99375
1233.109,39.19518
1233.591,39.40594
1234.073,39.30332
1234.555,39.06785
1235.037,38.99068
1235.519,39.18067
1236.001,38.91903
1236.484,38.13823
1236.966,37.53592
1237.448,37.53965
1237.93,37.76231
1238.412,37.86161
1238.894,37.91452
1239.376,38.06113
1239.858,38.35862
1240.34,38.31566
1240.823,37.91581
1241.305,37.54325
1241.787,37.42894
1242.269,37.38757
1242.751,37.16733
1243.233,36.99293
1243.715,37.18337
1244.197,37.79016
1244.679,38.24386
1245.162,38.54619
1245.644,38.60771
1246.126,38.12252
1246.608,37.72752
1247.09,38.10727
1247.572,38.63256
1248.054,38.53368
1248.536,37.7778
1249.019,37.31938
1249.501,37.15438
1249.983,37.23589
1250.465,37.98164
1250.947,38.41223
1251.429,37.54053
1251.911,36.49199
1252.393,36.42805
1252.875,37.27187
1253.358,37.51003
1253.84,37.213
1254.322,36.8708
1254.804,36.66375
1255.286,36.55329
1255.768,36.57268
1256.25,36.63158
1256.732,36.64906
1257.214,36.6397
1257.697,36.72956
1258.179,36.88589
1258.661,36.95472
1259.143,36.87122
1259.625,36.67378
1260.107,36.3107
1260.589,35.94767
1261.071,35.67938
1261.554,35.5327
1262.036,35.68542
1262.518,36.04408
1263.0,36.29617
1263.482,36.18015
1263.964,36.17531
1264.446,36.34361
1264.928,36.57445
1265.411,36.91335
1265.893,37.17544
1266.375,36.77253
1266.857,36.0059
1267.339,35.70545
1267.821,36.62493
1268.303,36.99402
1268.785,36.66921
1269.267,36.19971
1269.75,35.95372
1270.232,35.86891
1270.714,35.99194
1271.196,36.18771
1271.678,36.0877
1272.16,35.38623
1272.642,35.45209
1273.124,36.44143
1273.606,37.11903
1274.089,36.07891
1274.571,34.82561
1275.053,34.72426
1275.535,35.36351
1276.017,36.02549
1276.499,36.75827
1276.981,36.93103
1277.463,36.53925
1277.946,36.07823
1278.428,35.93277
1278.91,35.75479
1279.392,35.13123
1279.874,34.50066
1280.356,34.39194
1280.838,34.79531
1281.32,35.35054
1281.802,35.99663
1282.285,36.30934
1282.767,35.81654
1283.249,35.25169
1283.731,34.71552
1284.213,34.39187
1284.695,34.64465
1285.177,35.26817
1285.659,35.11959
1286.141,34.39582
1286.624,33.93923
1287.106,34.37112
1287.588,34.72031
1288.07,34.8456
1288.552,34.88207
1289.034,34.94166
1289.516,34.98964
1289.998,34.93395
1290.481,34.80202
1290.963,34.66314
1291.445,34.4651
1291.927,34.40179
1292.409,34.48672
1292.891,34.6563
1293.373,34.9895
1293.855,35.28014
1294.338,35.29203
1294.82,35.0594
1295.302,34.57102
1295.784,33.63112
1296.266,33.38316
1296.748,33.86829
1297.23,34.30415
1297.712,34.06226
1298.194,33.76225
1298.677,33.96801
1299.159,34.346
1299.641,34.4822
1300.123,34.37103
1300.605,34.20644
1301.087,34.00132
1301.569,33.87826
1302.051,33.98998
1302.533,34.04708
1303.016,33.95085
