Raman Shift,Intensity
123.9192,186.6668
124.4013,186.715
124.8834,185.7845
125.3655,183.7844
125.8476,182.3142
126.3298,183.2137
126.8119,186.7458
127.294,189.3566
127.7761,188.9306
128.2582,187.9017
128.7404,187.8444
129.2225,189.18
129.7046,190.9159
130.1867,191.1811
130.6688,188.5999
131.1509,187.1733
131.6331,188.0147
132.1152,189.7947
132.5973,191.305
133.0794,191.9518
133.5615,191.9607
134.0436,192.2578
134.5258,192.5655
135.0079,193.503
135.49,195.9919
135.9721,199.1329
136.4542,201.3794
136.9363,201.6461
137.4184,200.0543
137.9006,198.8661
138.3827,197.773
138.8648,197.233
139.3469,197.7962
139.829,199.3021
140.3111,200.7639
140.7933,201.297
141.2754,201.0189
141.7575,201.1975
142.2396,202.4335
142.7217,203.8925
143.2038,204.4374
143.686,203.7491
144.1681,203.3058
144.6502,204.8868
145.1323,207.7041
145.6144,210.0683
146.0965,210.8524
146.5787,210.6005
147.0608,211.0677
147.5429,212.6566
148.025,214.5739
148.5071,216.4623
148.9892,218.2802
149.4714,219.9525
149.9535,221.3705
150.4356,222.515
150.9177,223.6595
151.3998,224.6869
151.8819,225.806
152.3641,227.1361
152.8462,228.6619
153.3283,230.2585
153.8104,231.7049
154.2925,232.6406
154.7746,234.4944
155.2568,237.7451
155.7389,241.3616
156.221,244.803
156.7031,247.9115
157.1852,250.7719
157.6673,253.5005
158.1495,255.982
158.6316,258.4907
159.1137,261.027
159.5958,263.5956
160.0779,266.0834
160.56,268.4458
161.0422,270.9754
161.5243,274.3826
162.0064,278.9017
162.4885,283.5735
162.9706,288.0343
163.4527,292.5132
163.9349,297.5666
164.417,303.6133
164.8991,310.0362
165.3812,315.5753
165.8633,319.8547
166.3454,324.5151
166.8276,330.9195
167.3097,338.795
167.7918,346.2101
168.2739,351.855
168.756,357.047
169.2381,363.513
169.7203,371.7397
170.2024,380.1251
170.6845,386.7078
171.1666,391.0165
171.6487,396.1607
172.1308,404.446
172.613,413.4046
173.0951,421.1662
173.5772,427.1101
174.0593,431.9522
174.5414,436.8436
175.0235,441.5102
175.5057,446.8338
175.9878,453.6076
176.4699,460.7092
176.952,467.1086
177.4341,472.2946
177.9162,476.6448
178.3984,481.3913
178.8805,486.6208
179.3626,492.2077
179.8447,498.3828
180.3268,504.8357
180.8089,511.3713
181.2911,517.8856
181.7732,524.2531
182.2553,529.7839
182.7374,533.3276
183.2195,537.3296
183.7016,543.0325
184.1838,549.4909
184.6659,554.9291
185.148,558.1927
185.6301,559.5082
186.1122,561.1514
186.5943,564.3771
187.0765,566.61
187.5586,566.3791
188.0407,564.1823
188.5228,561.8821
189.0049,561.0978
189.487,561.1368
189.9692,558.2469
190.4513,551.8397
190.9334,543.2354
191.4155,533.277
191.8976,521.9815
192.3797,508.6764
192.8619,492.252
193.344,473.458
193.8261,454.8181
194.3082,436.8664
194.7903,419.0353
195.2724,400.7344
195.7546,381.9065
196.2367,363.2322
196.7188,344.8851
197.2009,327.0282
197.683,309.9113
198.1651,293.0401
198.6473,277.3597
199.1294,264.7154
199.6115,256.002
200.0936,248.2839
200.5757,240.2459
201.0578,232.2227
201.54,224.547
202.0221,217.2564
202.5042,210.5465
202.9863,205.0523
203.4684,201.7559
203.9505,198.1527
204.4327,192.5918
204.9148,186.438
205.3969,181.6303
205.879,179.4062
206.3611,179.2526
206.8432,178.5144
207.3254,176.7927
207.8075,174.8849
208.2896,172.7464
208.7717,170.5889
209.2538,168.7279
209.7359,167.4175
210.2181,166.5593
210.7002,165.2847
211.1823,162.8662
211.6644,160.769
212.1465,159.3539
212.6286,158.456
213.1108,157.788
213.5929,157.1799
214.075,156.6206
214.5571,155.9604
215.0392,154.8116
215.5213,153.9709
216.0035,153.8418
216.4856,154.2096
216.9677,154.63
217.4498,154.8384
217.9319,154.8315
218.414,154.554
218.8961,154.0149
219.3783,153.275
219.8604,151.993
220.3425,150.4505
220.8246,149.5166
221.3067,149.896
221.7888,151.3523
222.271,152.0937
222.7531,151.5355
223.2352,150.9117
223.7173,150.8025
224.1994,151.1612
224.6815,151.7247
225.1637,152.4057
225.6458,153.1548
226.1279,153.7996
226.61,154.5322
227.0921,154.9809
227.5742,154.7005
228.0564,153.7661
228.5385,152.9502
229.0206,152.7239
229.5027,152.8892
229.9848,152.9639
230.4669,152.8642
230.9491,152.7458
231.4312,152.748
231.9133,152.8713
232.3954,152.9975
232.8775,152.9195
233.3596,152.9019
233.8418,153.3825
234.3239,154.6725
234.806,155.9465
235.2881,156.0416
235.7702,154.7693
236.2523,154.1049
236.7345,155.5335
237.2166,157.5754
237.6987,158.9492
238.1808,159.3477
238.6629,159.2734
239.1451,159.2799
239.6272,159.382
240.1093,159.487
240.5914,159.7793
241.0735,159.9406
241.5556,159.4765
242.0378,158.2434
242.5199,157.1692
243.002,157.7143
243.4841,160.4604
243.9662,162.6569
244.4483,163.294
244.9305,163.5615
245.4126,164.2812
245.8947,165.6128
246.3768,167.0227
246.8589,167.7678
247.341,167.6694
247.8232,167.4391
248.3053,166.5974
248.7874,166.0335
249.2695,166.5027
249.7516,168.0449
250.2337,169.9172
250.7159,171.098
251.198,171.2575
251.6801,171.6134
252.1622,172.096
252.6443,172.8203
253.1264,174.0759
253.6086,175.7785
254.0907,177.4077
254.5728,178.207
255.0549,177.6667
255.537,177.8825
256.0191,179.157
256.5013,180.7927
256.9834,182.3621
257.4655,183.8676
257.9476,185.6686
258.4297,188.2928
258.9118,192.2611
259.394,194.8684
259.8761,194.5716
260.3582,194.525
260.8403,196.7738
261.3224,201.03
261.8045,205.3741
262.2867,207.8619
262.7688,207.9892
263.2509,209.7303
263.733,213.6595
264.2151,218.2538
264.6972,222.8927
265.1794,227.5553
265.6615,232.6737
266.1436,238.7187
266.6257,245.8055
267.1078,251.3643
267.5899,254.0375
268.0721,256.919
268.5542,261.252
269.0363,266.9099
269.5184,273.3082
270.0005,280.0373
270.4826,287.1301
270.9648,294.6952
271.4469,303.137
271.929,311.512
272.4111,319.0621
272.8932,326.222
273.3753,334.1918
273.8575,343.7416
274.3396,354.5262
274.8217,364.7836
275.3038,374.7226
275.7859,384.0476
276.268,391.9958
276.7502,399.2579
277.2323,407.4102
277.7144,417.2657
278.1965,428.2953
278.6786,438.9947
279.1607,448.9579
279.6429,459.2859
280.125,470.6097
280.6071,482.5095
281.0892,494.0316
281.5713,504.7896
282.0534,515.369
282.5356,527.1637
283.0177,540.5599
283.4998,553.549
283.9819,565.1627
284.464,576.1513
284.9461,587.7324
285.4283,600.2906
285.9104,613.1768
286.3925,625.6066
286.8746,637.6098
287.3567,649.2627
287.8388,661.54
288.321,673.1622
288.8031,681.6829
289.2852,686.4523
289.7673,690.8174
290.2494,699.2197
290.7315,711.3841
291.2137,720.7716
291.6958,725.4845
292.1779,727.4871
292.66,729.1758
293.1421,730.8274
293.6242,730.3806
294.1064,725.6533
294.5885,717.0516
295.0706,707.5974
295.5527,697.9844
296.0348,687.3246
296.5169,674.7006
296.9991,660.1586
297.4812,644.5192
297.9633,628.2289
298.4454,611.1749
298.9275,593.3829
299.4096,574.5421
299.8918,555.3046
300.3739,536.121
300.856,516.918
301.3381,497.3911
301.8202,476.8059
302.3023,456.2698
302.7845,437.3769
303.2666,420.4738
303.7487,404.6281
304.2308,389.623
304.7129,375.393
305.195,361.4659
305.6772,347.3971
306.1593,334.0497
306.6414,322.7516
307.1235,313.5609
307.6056,304.7259
308.0877,295.0293
308.5699,285.1308
309.052,276.6693
309.5341,270.2711
310.0162,264.6408
310.4983,258.2979
310.9804,251.3416
311.4626,244.845
311.9447,239.2597
312.4268,234.3032
312.9089,229.5288
313.391,224.8595
313.8731,220.3929
314.3553,216.0158
314.8374,211.8644
315.3195,208.4421
315.8016,206.63
316.2837,205.1334
316.7658,202.2817
317.248,197.9996
317.7301,194.0889
318.2122,191.9745
318.6943,190.9229
319.1764,189.0798
319.6585,185.7065
320.1407,182.2769
320.6228,179.9657
321.1049,178.6597
321.587,177.543
322.0691,176.4671
322.5512,175.2204
323.0334,173.3482
323.5155,170.5537
323.9976,168.1182
324.4797,166.9445
324.9618,166.7031
325.4439,166.4515
325.9261,166.0063
326.4082,165.3194
326.8903,164.338
327.3724,163.0999
327.8545,161.52
328.3366,159.0974
328.8188,156.4467
329.3009,154.5299
329.783,153.4925
330.2651,153.2065
330.7472,154.168
331.2293,156.0387
331.7115,156.8143
332.1936,155.1615
332.6757,152.8141
333.1578,151.761
333.6399,152.0918
334.122,152.2689
334.6042,151.1339
335.0863,149.0312
335.5684,147.4293
336.0505,146.5147
336.5326,145.9611
337.0147,145.6774
337.4969,145.6134
337.979,145.5649
338.4611,145.4976
338.9432,145.3245
339.4253,144.8288
339.9074,143.8774
340.3896,142.9973
340.8717,142.4673
341.3538,142.144
341.8359,141.7733
342.318,141.3053
342.8001,140.6801
343.2822,139.6032
343.7643,137.9556
344.2465,136.9859
344.7286,137.4416
345.2107,138.4296
345.6928,139.0645
346.1749,139.2196
346.657,138.9698
347.1392,138.3821
347.6213,137.4031
348.1034,136.0504
348.5855,133.219
349.0676,130.9307
349.5497,130.8764
350.0319,132.709
350.514,134.7265
350.9961,136.0876
351.4782,136.7399
351.9603,136.4731
352.4424,134.7542
352.9246,132.9445
353.4067,131.101
353.8888,129.4929
354.3709,128.7719
354.853,129.2587
355.3351,130.2921
355.8173,130.5768
356.2994,129.6299
356.7815,129.0681
357.2636,129.545
357.7457,130.1816
358.2278,129.8888
358.71,128.5626
359.1921,127.3008
359.6742,127.452
360.1563,129.4428
360.6384,130.1394
361.1205,128.4119
361.6027,126.5564
362.0848,126.0713
362.5669,126.6106
363.049,126.7202
363.5311,125.3015
364.0132,122.6467
364.4954,121.1929
364.9775,121.8902
365.4596,122.5809
365.9417,122.9599
366.4238,123.051
366.9059,122.916
367.3881,122.579
367.8702,122.0302
368.3523,121.1857
368.8344,119.1312
369.3165,118.366
369.7986,120.2198
370.2808,122.3263
370.7629,122.7144
371.245,121.2703
371.7271,119.4131
372.2092,118.7203
372.6913,119.434
373.1735,119.7243
373.6556,119.5138
374.1377,118.9884
374.6198,117.8778
375.1019,116.5076
375.584,115.5085
376.0662,115.2996
376.5483,115.7445
377.0304,116.2315
377.5125,117.0667
377.9946,117.4668
378.4767,116.9632
378.9589,116.1707
379.441,115.7042
379.9231,115.7643
380.4052,116.1016
380.8873,116.465
381.3694,117.0807
381.8516,116.948
382.3337,115.229
382.8158,113.3698
383.2979,111.8919
383.78,110.9245
384.2621,110.5729
384.7443,111.2728
385.2264,112.8695
385.7085,113.3574
386.1906,111.9231
386.6727,110.5116
387.1548,109.9216
387.637,109.847
388.1191,109.8876
388.6012,109.9634
389.0833,109.8804
389.5654,109.052
390.0475,107.1628
390.5297,105.98
391.0118,106.7193
391.4939,108.0263
391.976,108.9298
392.4581,109.296
392.9402,109.3254
393.4224,109.0201
393.9045,108.4532
394.3866,108.1371
394.8687,108.3568
395.3508,108.4725
395.8329,107.6881
396.3151,106.3214
396.7972,105.4474
397.2793,105.7291
397.7614,106.6154
398.2435,107.5491
398.7256,108.5644
399.2078,108.9397
399.6899,107.7159
400.172,105.7832
400.6541,105.1257
401.1362,106.4645
401.6183,107.8771
402.1005,108.1497
402.5826,107.6012
403.0647,107.1215
403.5468,106.9936
404.0289,106.9842
404.511,106.8438
404.9932,106.6245
405.4753,105.9528
405.9574,103.9013
406.4395,101.899
406.9216,101.5954
407.4037,103.0065
407.8859,104.6725
408.368,105.4975
408.8501,105.5389
409.3322,105.6471
409.8143,106.3203
410.2964,106.5092
410.7786,105.2918
411.2607,103.4397
411.7428,102.3442
412.2249,102.5975
412.707,103.6255
413.1891,104.3255
413.6713,104.5851
414.1534,104.6638
414.6355,104.6834
415.1176,104.4438
415.5997,103.501
416.0818,102.0273
416.564,100.8356
417.0461,100.6897
417.5282,101.6008
418.0103,102.5623
418.4924,104.3382
418.9745,105.3045
419.4567,104.4267
419.9388,102.7235
420.4209,101.6353
420.903,101.8268
421.3851,102.6761
421.8672,102.8637
422.3494,101.9991
422.8315,101.4764
423.3136,101.5081
423.7957,101.8355
424.2778,102.5375
424.7599,103.4806
425.2421,104.1605
425.7242,103.9662
426.2063,103.0253
426.6884,102.6306
427.1705,103.1169
427.6526,103.6004
428.1348,103.7225
428.6169,103.5953
429.099,103.3566
429.5811,103.0305
430.0632,102.6665
430.5453,102.2081
431.0275,101.6449
431.5096,101.5192
431.9917,102.1838
432.4738,103.1722
432.9559,104.1143
433.438,105.0055
433.9202,105.459
434.4023,104.9166
434.8844,103.9245
435.3665,103.5552
435.8486,103.9717
436.3307,104.3374
436.8129,103.8327
437.295,102.7779
437.7771,102.5172
438.2592,103.9564
438.7413,105.2575
439.2234,105.1777
439.7056,104.2018
440.1877,103.5029
440.6698,103.5183
441.1519,103.9246
441.634,104.2104
442.1161,104.31
442.5983,104.4813
443.0804,104.8302
443.5625,105.1846
444.0446,105.3129
444.5267,105.283
445.0089,105.5175
445.491,106.4385
445.9731,107.8866
446.4552,108.3147
446.9373,105.9444
447.4194,104.6883
447.9016,106.0471
448.3837,108.379
448.8658,109.8374
449.3479,109.8773
449.83,109.2769
450.3121,109.15
450.7943,109.6789
451.2764,109.9965
451.7585,109.7383
452.2406,109.6092
452.7227,110.1195
453.2048,110.9756
453.687,111.4512
454.1691,110.9943
454.6512,110.0563
455.1333,109.8744
455.6154,110.737
456.0975,111.4955
456.5797,111.685
457.0618,111.6875
457.5439,111.8033
458.026,112.0722
458.5081,112.2878
458.9902,112.1267
459.4724,111.7625
459.9545,111.884
460.4366,112.6904
460.9187,113.6336
461.4008,114.3656
461.8829,114.9182
462.3651,115.3192
462.8472,115.1994
463.3293,115.3258
463.8114,116.6712
464.2935,118.8351
464.7756,120.3039
465.2578,120.4343
465.7399,119.8523
466.222,119.5391
466.7041,119.5064
467.1862,119.6577
467.6683,120.3194
468.1505,120.919
468.6326,120.8313
469.1147,120.1542
469.5968,119.531
470.0789,119.4019
470.561,119.7236
471.0432,120.208
471.5253,121.0814
472.0074,121.8438
472.4895,122.3156
472.9716,122.7203
473.4537,123.3713
473.9359,124.2936
474.418,125.1233
474.9001,125.2818
475.3822,124.5968
475.8643,124.6698
476.3464,126.2723
476.8286,127.8429
477.3107,129.0271
477.7928,129.8134
478.2749,130.1509
478.757,129.9386
479.2391,129.5615
479.7213,129.711
480.2034,130.4628
480.6855,131.0792
481.1676,131.2064
481.6497,131.3401
482.1318,131.9772
482.614,133.0506
483.0961,133.9807
483.5782,134.3578
484.0603,134.4816
484.5424,134.9484
485.0245,135.7955
485.5067,136.2698
485.9888,135.7172
486.4709,134.6485
486.953,134.437
487.4351,135.4998
487.9172,136.4407
488.3994,136.5026
488.8815,136.2867
489.3636,136.8196
489.8457,138.2401
490.3278,139.4603
490.8099,139.3334
491.2921,137.7772
491.7742,136.9546
492.2563,136.9847
492.7384,137.474
493.2205,138.7511
493.7026,140.2664
494.1848,141.2516
494.6669,141.4253
495.149,141.1529
495.6311,140.8938
496.1132,140.432
496.5953,140.6974
497.0775,142.9681
497.5596,144.7592
498.0417,144.69
498.5238,143.3793
499.0059,142.2608
499.488,142.1069
499.9702,142.5262
500.4523,142.6486
500.9344,142.3465
501.4165,142.6235
501.8986,144.6096
502.3807,146.5186
502.8629,146.4237
503.345,144.3849
503.8271,142.6056
504.3092,142.2793
504.7913,142.7889
505.2734,143.2629
505.7556,143.6532
506.2377,144.0856
506.7198,144.8266
507.2019,145.5462
507.684,145.1502
508.1661,142.8202
508.6482,141.0816
509.1303,140.9778
509.6125,141.6094
510.0946,142.1307
510.5767,142.3309
511.0588,142.0874
511.5409,141.1956
512.0231,139.6624
512.5052,138.6673
512.9873,138.6323
513.4694,138.6364
513.9515,138.3368
514.4337,138.0663
514.9158,138.4496
515.3979,139.5817
515.88,140.5703
516.3621,140.0009
516.8442,137.6365
517.3264,136.2713
517.8085,136.4288
518.2906,136.9803
518.7727,137.7059
519.2548,138.3757
519.7369,138.616
520.2191,138.2831
520.7012,137.5306
521.1833,136.3023
521.6654,134.6941
522.1475,133.4777
522.6296,132.8952
523.1118,132.6274
523.5939,132.3955
524.076,132.1972
524.5581,132.0318
525.0402,132.0145
525.5223,131.9287
526.0045,131.6792
526.4866,131.2372
526.9687,130.4337
527.4508,129.1532
527.9329,127.779
528.415,127.0761
528.8972,127.5828
529.3793,127.5104
529.8614,126.5688
530.3435,125.3609
530.8256,123.9781
531.3077,122.613
531.7899,121.6261
532.272,121.2578
532.7541,121.2784
533.2362,121.0869
533.7183,120.5905
534.2004,120.1421
534.6826,120.1731
535.1647,119.9645
535.6468,118.9323
536.1289,117.1977
536.611,115.4444
537.0931,113.871
537.5753,112.6358
538.0574,112.278
538.5395,112.849
539.0216,113.1217
539.5037,112.4946
539.9858,111.368
540.468,110.2697
540.9501,109.0615
541.4322,108.5368
541.9143,109.6951
542.3964,111.1259
542.8785,111.3519
543.3607,110.4108
543.8428,109.1771
544.3249,108.172
544.807,107.361
545.2891,106.6247
545.7712,106.3591
546.2534,105.5956
546.7355,103.4926
547.2176,101.5144
547.6997,100.8364
548.1818,101.4085
548.6639,102.4774
549.1461,103.6661
549.6282,104.7366
550.1103,104.5249
550.5924,102.496
551.0745,100.5722
551.5566,99.07437
552.0388,98.07703
552.5209,97.99541
553.003,98.7968
553.4851,99.17619
553.9672,97.86218
554.4493,95.81886
554.9315,94.85158
555.4136,95.05602
555.8957,95.45892
556.3778,95.6322
556.8599,95.57536
557.342,95.25075
557.8242,94.58697
558.3063,93.88627
558.7884,93.10646
559.2705,92.38457
559.7526,91.88797
560.2347,91.59532
560.7169,91.36367
561.199,91.11748
561.6811,90.80501
562.1632,90.13567
562.6453,88.53764
563.1274,87.59071
563.6096,88.11275
564.0917,88.76045
564.5738,88.43096
565.0559,87.20123
565.538,86.04868
566.0201,85.78383
566.5023,86.03545
566.9844,85.78838
567.4665,84.96059
567.9486,84.15635
568.4307,83.58132
568.9128,83.172
569.395,82.87998
569.8771,82.72591
570.3592,82.43875
570.8413,81.7437
571.3234,80.99677
571.8055,80.6645
572.2877,80.67095
572.7698,80.47804
573.2519,79.73737
573.734,78.77605
574.2161,78.45665
574.6982,79.37752
575.1804,79.90785
575.6625,79.82936
576.1446,79.57359
576.6267,79.44774
577.1088,79.37212
577.5909,79.01906
578.0731,78.13341
578.5552,77.05586
579.0373,76.66135
579.5194,77.14076
580.0015,77.22433
580.4836,76.37122
580.9658,75.34861
581.4479,74.70844
581.93,74.40314
582.4121,74.20377
582.8942,74.15624
583.3763,74.07478
583.8585,73.66722
584.3406,73.049
584.8227,72.72887
585.3048,72.9407
585.7869,73.20512
586.269,72.80179
586.7512,71.49983
587.2333,70.68383
587.7154,70.57054
588.1975,70.66817
588.6796,71.04292
589.1617,71.40681
589.6438,71.22514
590.1259,70.33125
590.608,69.29118
591.0901,69.0007
591.5723,69.56892
592.0544,69.78777
592.5365,69.32088
593.0186,68.97674
593.5007,69.57738
593.9828,70.38499
594.465,70.12151
594.9471,68.20033
595.4292,66.29684
595.9113,65.7961
596.3934,66.24757
596.8755,66.68948
597.3577,66.98314
597.8398,67.0987
598.3219,66.95312
598.804,66.60664
599.2861,66.47511
599.7682,66.72491
600.2504,66.93459
600.7325,66.94927
601.2146,66.9558
601.6967,67.34481
602.1788,67.98872
602.6609,68.16163
603.1431,67.18191
603.6252,65.36743
604.1073,64.12275
604.5894,63.56348
605.0715,63.27023
605.5536,63.28688
606.0358,63.43288
606.5179,63.67955
607.0,63.98142
607.4821,64.08724
607.9642,63.83543
608.4464,63.35035
608.9285,62.57402
609.4106,61.61739
609.8927,61.13676
610.3748,61.40043
610.8569,62.21309
611.3391,63.48304
611.8212,65.65514
612.3033,66.32536
612.7854,64.1138
613.2675,61.93296
613.7496,61.2464
614.2318,61.4151
614.7139,61.17792
615.196,60.1004
615.6781,58.98727
616.1602,59.1842
616.6423,60.78808
617.1245,61.37434
617.6066,60.30733
618.0887,59.27277
618.5708,59.36633
619.0529,59.90073
619.535,59.86123
620.0172,58.93215
620.4993,58.10242
620.9814,58.10944
621.4635,58.49729
621.9456,58.48049
622.4277,58.01884
622.9099,57.69374
623.392,57.92727
623.8741,58.51815
624.3562,58.75468
624.8383,58.34854
625.3204,57.9919
625.8026,57.58125
626.2847,57.31122
626.7668,57.29923
627.2489,57.53835
627.731,58.04513
628.2131,58.92122
628.6953,59.78017
629.1774,59.85973
629.6595,59.12994
630.1416,58.3343
630.6237,57.38691
631.1058,56.76585
631.588,57.32478
632.0701,58.61793
632.5522,59.1813
633.0343,58.2509
633.5164,57.20011
633.9985,56.66864
634.4807,56.47029
634.9628,56.37325
635.4449,56.30792
635.927,56.16283
636.4091,55.75731
636.8912,55.18016
637.3734,55.49544
637.8555,57.98226
638.3376,59.26841
638.8197,57.79894
639.3018,55.87222
639.7839,55.41353
640.2661,56.35134
640.7482,57.14938
641.2303,56.69668
641.7124,55.70736
642.1945,55.28585
642.6766,55.39878
643.1588,55.6771
643.6409,56.04615
644.123,56.42768
644.6051,56.77443
645.0872,57.1034
645.5693,57.09505
646.0515,56.53917
646.5336,55.88666
647.0157,54.96194
647.4978,54.20078
647.9799,54.42399
648.462,55.69852
648.9442,56.9233
649.4263,56.87148
649.9084,55.6937
650.3905,54.80634
650.8726,54.21196
651.3547,53.89534
651.8369,53.9373
652.319,54.20831
652.8011,54.69367
653.2832,55.39426
653.7653,55.80338
654.2474,55.62576
654.7296,55.15691
655.2117,54.50042
655.6938,53.7822
656.1759,53.35154
656.658,53.34623
657.1401,53.65148
657.6223,54.17469
658.1044,55.04205
658.5865,55.3658
659.0686,54.05125
659.5507,53.44466
660.0328,55.01365
660.515,57.13938
660.9971,57.88559
661.4792,56.86692
661.9613,55.32703
662.4434,53.79255
662.9255,52.57185
663.4077,52.73907
663.8898,54.31792
664.3719,55.44348
664.854,55.18929
665.3361,54.1743
665.8182,53.43451
666.3004,53.02177
666.7825,52.73006
667.2646,52.28592
667.7467,52.23954
668.2288,53.40281
668.7109,54.97327
669.1931,55.59039
669.6752,54.83912
670.1573,53.60703
670.6394,52.91242
671.1215,52.71922
671.6036,52.55898
672.0858,52.3922
672.5679,52.38557
673.05,52.69616
673.5321,53.16643
674.0142,53.61045
674.4963,54.05822
674.9785,54.25126
675.4606,54.00307
675.9427,53.56439
676.4248,52.95546
676.9069,52.33795
677.389,52.08118
677.8712,52.3298
678.3533,52.87053
678.8354,53.4272
679.3175,54.01209
679.7996,54.4999
680.2817,54.961
680.7639,55.21137
681.246,55.12868
681.7281,54.85544
682.2102,54.43472
682.6923,53.866
683.1744,53.59951
683.6566,54.33257
684.1387,55.20971
684.6208,54.98124
685.1029,53.84397
685.585,52.85918
686.0671,52.47161
686.5493,52.44928
687.0314,52.41668
687.5135,52.2828
687.9956,52.6329
688.4777,54.3469
688.9598,55.51654
689.442,55.29263
689.9241,54.476
690.4062,53.82082
690.8883,53.5176
691.3704,53.66747
691.8525,54.71912
692.3347,56.123
692.8168,56.79586
693.2989,56.76182
693.781,56.66325
694.2631,56.76858
694.7452,56.81829
695.2274,56.33885
695.7095,55.11478
696.1916,54.7312
696.6737,55.72919
697.1558,56.83988
697.6379,57.74926
698.1201,58.51813
698.6022,59.33403
699.0843,60.17988
699.5664,60.68892
700.0485,60.23841
700.5306,59.38163
701.0128,59.92709
701.4949,61.94881
701.977,62.98828
702.4591,61.87283
702.9412,60.26196
703.4233,60.10402
703.9055,61.49506
704.3876,62.91152
704.8697,64.40046
705.3518,65.8411
705.8339,67.33715
706.316,68.66939
706.7982,69.47001
707.2803,69.77712
707.7624,70.00619
708.2445,70.35756
708.7266,71.01604
709.2087,72.7783
709.6909,75.80962
710.173,78.06081
710.6551,78.72234
711.1372,79.04771
711.6193,80.20311
712.1014,82.06313
712.5836,83.88125
713.0657,85.30534
713.5478,87.0715
714.0299,89.91168
714.512,92.91004
714.9941,94.88782
715.4763,95.96728
715.9584,97.28808
716.4405,99.67645
716.9226,102.6298
717.4047,104.8205
717.8868,106.1166
718.369,107.9727
718.8511,110.6924
719.3332,113.8205
719.8153,117.4219
720.2974,121.1313
720.7795,123.989
721.2617,125.4897
721.7438,127.0208
722.2259,129.19
722.708,131.4815
723.1901,133.3335
723.6722,134.8432
724.1544,136.5315
724.6365,138.6743
725.1186,141.0117
725.6007,143.3486
726.0828,145.7588
726.5649,146.6859
727.0471,145.133
727.5292,144.0427
728.0113,145.465
728.4934,148.048
728.9755,149.7475
729.4576,150.4244
729.9398,150.5023
730.4219,149.7394
730.904,148.7482
731.3861,148.1237
731.8682,147.6322
732.3503,146.7312
732.8325,145.2298
733.3146,143.2937
733.7967,141.0963
734.2788,138.6452
734.7609,135.9516
735.243,132.7616
735.7252,130.1395
736.2073,128.8738
736.6894,128.0096
737.1715,126.5311
737.6536,124.4507
738.1357,121.9519
738.6179,118.7051
739.1,115.4455
739.5821,112.2688
740.0642,109.4569
740.5463,107.547
741.0284,106.518
741.5106,105.5367
741.9927,103.8387
742.4748,101.7668
742.9569,100.656
743.439,100.7439
743.9211,100.2687
744.4033,98.78397
744.8854,96.8286
745.3675,94.78875
745.8496,92.62453
746.3317,90.19441
746.8138,87.18724
747.296,84.42247
747.7781,82.16279
748.2602,80.24971
748.7423,78.64082
749.2244,77.25833
749.7065,75.98505
750.1887,74.75716
750.6708,73.55485
751.1529,72.41078
751.635,71.31628
752.1171,69.74162
752.5992,67.45152
753.0814,65.39856
753.5635,64.19194
754.0456,63.46278
754.5277,62.47769
755.0098,61.18513
755.4919,59.92022
755.9741,58.2275
756.4562,57.08424
756.9383,57.66692
757.4204,58.8867
757.9025,59.0057
758.3846,57.65945
758.8668,55.94609
759.3489,54.82822
759.831,54.15503
760.3131,53.44947
760.7952,52.70781
761.2773,52.3337
761.7595,52.58662
762.2416,52.89649
762.7237,52.67633
763.2058,51.93526
763.6879,51.1568
764.17,49.88605
764.6522,49.19492
765.1343,49.73262
765.6164,50.54881
766.0985,50.91793
766.5806,50.86139
767.0627,50.7561
767.5449,50.82072
768.027,50.77708
768.5091,50.10301
768.9912,49.03652
769.4733,48.45197
769.9554,48.45541
770.4376,48.53212
770.9197,48.38794
771.4018,48.11823
771.8839,47.9173
772.366,47.70256
772.8481,47.7985
773.3303,48.64354
773.8124,49.28101
774.2945,49.34956
774.7766,49.05299
775.2587,48.54583
775.7408,47.88237
776.223,47.38024
776.7051,47.44045
777.1872,47.61033
777.6693,47.12385
778.1514,46.27824
778.6335,46.23886
779.1157,47.28839
779.5978,48.07075
780.0799,47.09611
780.562,44.78099
781.0441,43.99575
781.5262,45.54807
782.0084,46.7226
782.4905,46.92439
782.9726,46.85304
783.4547,46.95149
783.9368,47.11172
784.4189,47.04142
784.9011,46.62432
785.3832,46.12035
785.8653,45.5176
786.3474,44.98412
786.8295,44.70701
787.3116,44.66199
787.7938,44.75985
788.2759,44.95853
788.758,45.17252
789.2401,45.22802
789.7222,45.14243
790.2043,45.41343
790.6865,46.24167
791.1686,46.55288
791.6507,45.60415
792.1328,44.34423
792.6149,44.04092
793.097,44.69954
793.5792,45.19798
794.0613,45.45762
794.5434,45.57105
795.0255,45.51944
795.5076,45.36995
795.9897,45.17841
796.4719,44.95167
796.954,44.67888
797.4361,44.35772
797.9182,43.97665
798.4003,43.38125
798.8824,42.69979
799.3646,42.54302
799.8467,42.99543
800.3288,43.40186
800.8109,43.35397
801.293,43.09739
801.7751,43.18881
802.2573,43.81195
802.7394,44.16318
803.2215,44.02227
803.7036,43.86142
804.1857,43.89814
804.6678,43.92523
805.15,43.5949
805.6321,42.92237
806.1142,42.5181
806.5963,42.94799
807.0784,43.49569
807.5605,43.45313
808.0427,43.12234
808.5248,43.08661
809.0069,43.43866
809.489,43.94085
809.9711,44.44225
810.4532,44.88728
810.9354,45.15868
811.4175,45.27703
811.8996,45.00163
812.3817,44.07154
812.8638,43.26567
813.3459,43.14676
813.8281,43.39098
814.3102,43.21423
814.7923,42.36677
815.2744,42.13031
815.7565,43.41715
816.2386,44.55373
816.7208,44.59455
817.2029,43.997
817.685,43.29193
818.1671,42.65395
818.6492,42.22428
819.1313,42.18177
819.6135,42.32217
820.0956,42.28771
820.5777,42.13073
821.0598,42.13752
821.5419,42.37246
822.024,42.5093
822.5062,42.26582
822.9883,41.80642
823.4704,41.67259
823.9525,41.97488
824.4346,42.34016
824.9167,42.93346
825.3989,43.37757
825.881,43.44579
826.3631,43.32205
826.8452,43.29181
827.3273,43.4007
827.8094,43.29249
828.2916,42.33562
828.7737,41.61321
829.2558,42.21976
829.7379,43.46894
830.22,44.34151
830.7021,44.59509
831.1843,44.30862
831.6664,43.40364
832.1485,42.33089
832.6306,42.16485
833.1127,42.86344
833.5948,43.56084
834.077,44.18505
834.5591,44.57136
835.0412,44.59877
835.5233,44.33364
836.0054,43.89609
836.4875,43.10144
836.9697,42.66542
837.4518,42.74506
837.9339,42.96413
838.416,43.36646
838.8981,43.74379
839.3802,43.78922
839.8624,43.53087
840.3445,43.43772
840.8266,44.07571
841.3087,44.5801
841.7908,43.89927
842.2729,42.72768
842.7551,42.30016
843.2372,42.68861
843.7193,43.18589
844.2014,43.36863
844.6835,43.32628
845.1656,43.20205
845.6478,42.99474
846.1299,42.78028
846.612,42.57865
847.0941,42.26316
847.5762,41.62541
848.0583,41.04397
848.5405,41.15376
849.0226,42.06526
849.5047,42.60618
849.9868,42.33018
850.4689,42.28253
850.951,42.84896
851.4332,43.60579
851.9153,44.52339
852.3974,45.31002
852.8795,45.08599
853.3616,43.06576
853.8438,41.44614
854.3259,42.63871
854.808,44.89446
855.2901,45.66921
855.7722,45.08984
856.2543,44.42972
856.7365,44.20592
857.2186,44.19734
857.7007,44.12046
858.1828,44.011
858.6649,44.11942
859.147,44.44349
859.6292,45.07299
860.1113,46.24496
860.5934,47.25299
861.0755,47.3144
861.5576,46.68048
862.0397,46.67268
862.5219,48.01965
863.004,48.75332
863.4861,48.13835
863.9682,47.58972
864.4503,48.06741
864.9324,48.96949
865.4146,49.32699
865.8967,48.94748
866.3788,48.49906
866.8609,48.37902
867.343,48.35067
867.8251,48.25846
868.3073,48.06582
868.7894,47.60016
869.2715,46.90583
869.7536,46.43301
870.2357,46.53105
870.7178,46.87924
871.2,46.83685
871.6821,46.40897
872.1642,45.73681
872.6463,44.75474
873.1284,43.92635
873.6105,43.46811
874.0927,43.29731
874.5748,43.41622
875.0569,43.95541
875.539,43.63821
876.0211,41.3693
876.5032,39.69286
876.9854,39.26371
877.4675,39.30899
877.9496,39.2544
878.4317,39.1842
878.9138,39.60386
879.3959,41.06476
879.8781,41.81022
880.3602,40.01348
880.8423,37.82752
881.3244,37.525
881.8065,38.49128
882.2886,39.01793
882.7708,38.61543
883.2529,38.20584
883.735,38.82181
884.2171,39.87374
884.6992,39.86037
885.1813,38.92301
885.6635,38.13402
886.1456,37.68576
886.6277,37.62428
887.1098,38.07396
887.5919,38.73554
888.074,38.776
888.5562,37.93028
889.0383,37.47459
889.5204,37.55363
890.0025,37.78561
890.4846,38.16671
890.9667,38.54055
891.4489,38.75666
891.931,38.81689
892.4131,38.76068
892.8952,38.56008
893.3773,38.28788
893.8594,37.95011
894.3416,37.56376
894.8237,36.8971
895.3058,36.23826
895.7879,36.32843
896.27,37.44887
896.7521,38.56071
897.2343,38.86364
897.7164,38.64116
898.1985,38.14851
898.6806,37.49359
899.1627,36.86663
899.6448,36.34431
900.127,36.0829
900.6091,36.23831
901.0912,36.68357
901.5733,37.10332
902.0554,37.49612
902.5375,37.96721
903.0197,38.60546
903.5018,38.93638
903.9839,38.70702
904.466,38.05961
904.9481,37.1056
905.4302,35.74337
905.9124,35.06895
906.3945,35.40429
906.8766,35.97421
907.3587,37.08772
907.8408,37.99748
908.3229,38.09315
908.8051,37.58439
909.2872,37.02929
909.7693,36.46232
910.2514,36.08907
910.7335,36.02407
911.2156,36.14373
911.6978,36.41045
912.1799,36.77851
912.662,37.36076
913.1441,38.06345
913.6262,38.25955
914.1083,37.27364
914.5905,36.01234
915.0726,35.70127
915.5547,36.036
916.0368,36.3858
916.5189,36.63419
917.001,36.61732
917.4832,36.24077
917.9652,35.81124
918.4473,35.84802
918.9294,36.27774
919.4116,36.19651
919.8937,35.48335
920.3758,35.18591
920.8579,35.71454
921.34,36.28146
921.8221,36.17174
922.3043,35.61827
922.7864,35.54506
923.2685,36.47384
923.7506,36.73439
924.2327,35.55132
924.7148,34.61423
925.197,34.54507
925.6791,34.94419
926.1612,35.5802
926.6433,36.36458
927.1254,36.65159
927.6075,35.54057
928.0897,34.89447
928.5718,36.21961
929.0539,37.59626
929.536,36.91103
930.0181,35.0169
930.5002,34.13342
930.9824,34.94855
931.4645,35.87804
931.9466,35.24166
932.4287,34.3984
932.9108,35.48833
933.3929,37.62514
933.8751,38.69399
934.3572,38.41411
934.8393,37.81327
935.3214,37.54295
935.8035,37.3725
936.2856,36.78194
936.7678,35.88183
937.2499,35.58447
937.732,35.93951
938.2141,36.23699
938.6962,36.25141
939.1783,36.00365
939.6605,35.47142
940.1426,34.71687
940.6247,34.08986
941.1068,33.49276
941.5889,33.3711
942.071,34.15007
942.5532,34.72429
943.0353,34.15194
943.5174,33.2902
943.9995,33.74586
944.4816,35.69048
944.9637,36.78335
945.4459,36.2546
945.928,35.80268
946.4101,35.85057
946.8922,36.0584
947.3743,36.31919
947.8564,36.50332
948.3386,36.30692
948.8207,35.57743
949.3028,35.02927
949.7849,35.11218
950.267,35.3642
950.7491,34.9994
951.2313,34.82945
951.7134,36.76579
952.1955,40.29154
952.6776,42.26479
953.1597,40.73742
953.6418,38.03169
954.124,36.19495
954.6061,35.17133
955.0882,35.15937
955.5703,35.88343
956.0524,36.35526
956.5345,36.27933
957.0167,36.22053
957.4988,36.79993
957.9809,37.57719
958.463,37.2103
958.9451,35.82121
959.4272,35.00942
959.9094,34.96021
960.3915,35.44086
960.8736,36.46725
961.3557,37.43623
961.8378,37.37968
962.3199,36.35626
962.8021,36.11594
963.2842,37.05027
963.7663,37.47922
964.2484,36.9036
964.7305,36.17533
965.2126,35.78605
965.6948,35.64433
966.1769,35.559
966.659,35.52452
967.1411,35.56973
967.6232,35.50784
968.1053,35.77113
968.5875,37.12535
969.0696,38.25522
969.5517,37.84021
970.0338,36.36784
970.5159,35.3189
970.998,34.91928
971.4802,35.03123
971.9623,36.0512
972.4444,37.08996
972.9265,37.6931
973.4086,37.98706
973.8907,38.08535
974.3729,38.05578
974.855,38.04675
975.3371,38.14688
975.8192,38.2205
976.3013,38.12667
976.7834,37.98853
977.2656,38.12956
977.7477,38.29134
978.2298,37.65035
978.7119,36.17753
979.194,35.17153
979.6761,35.76176
980.1583,36.98311
980.6404,37.4444
981.1225,37.44471
981.6046,37.71673
982.0867,38.27273
982.5688,38.7945
983.051,39.14927
983.5331,39.29399
984.0152,39.10879
984.4973,38.75097
984.9794,38.83699
985.4615,39.31149
985.9437,39.32652
986.4258,38.73981
986.9079,38.27452
987.39,38.33904
987.8721,38.62162
988.3542,38.62837
988.8364,38.37442
989.3185,38.21117
989.8006,38.09346
990.2827,38.3462
990.7648,39.22878
991.2469,39.96012
991.7291,39.98482
992.2112,39.56273
992.6933,39.22808
993.1754,38.96608
993.6575,38.8777
994.1396,38.91612
994.6218,39.23195
995.1039,40.31266
995.586,41.19408
996.0681,40.98535
996.5502,40.03764
997.0323,39.17701
997.5145,38.04291
997.9966,38.13917
998.4787,41.34669
998.9608,43.51999
999.4429,42.2885
999.925,40.3128
1000.407,40.10775
1000.889,41.25693
1001.371,41.79484
1001.854,41.07954
1002.336,40.55045
1002.818,40.6918
1003.3,41.09237
1003.782,41.90546
1004.264,42.5892
1004.746,42.2554
1005.228,41.12417
1005.71,40.47314
1006.193,40.91801
1006.675,41.50867
1007.157,41.77334
1007.639,41.8412
1008.121,41.55831
1008.603,41.28577
1009.085,41.80869
1009.567,43.05514
1010.049,43.9387
1010.532,43.75924
1011.014,43.2903
1011.496,43.25006
1011.978,43.38904
1012.46,43.27947
1012.942,43.05579
1013.424,43.21191
1013.906,43.79787
1014.389,44.19599
1014.871,43.83628
1015.353,43.37628
1015.835,43.90362
1016.317,45.0117
1016.799,45.73396
1017.281,46.07557
1017.763,46.50858
1018.245,47.15334
1018.728,47.44878
1019.21,46.74616
1019.692,45.70487
1020.174,45.88944
1020.656,47.02466
1021.138,47.73684
1021.62,47.93929
1022.102,48.08341
1022.585,48.33939
1023.067,48.57923
1023.549,48.61319
1024.031,48.62141
1024.513,49.29705
1024.995,50.62035
1025.477,51.82853
1025.959,52.8844
1026.442,53.28406
1026.924,52.69294
1027.406,52.04214
1027.888,52.454
1028.37,53.6946
1028.852,54.44372
1029.334,54.58795
1029.816,55.17097
1030.298,56.43916
1030.781,57.46261
1031.263,57.77243
1031.745,57.75618
1032.227,57.79428
1032.709,57.9402
1033.191,58.80881
1033.673,60.84374
1034.155,61.93755
1034.637,61.29044
1035.12,61.29847
1035.602,63.65466
1036.084,66.29565
1036.566,66.20948
1037.048,63.67609
1037.53,63.23754
1038.012,65.89353
1038.494,68.46175
1038.977,71.07372
1039.459,73.04166
1039.941,73.87532
1040.423,74.05364
1040.905,73.895
1041.387,73.45253
1041.869,74.03553
1042.351,76.1501
1042.833,78.44841
1043.316,81.47142
1043.798,83.95348
1044.28,85.27724
1044.762,85.84761
1045.244,85.6335
1045.726,84.77023
1046.208,85.39697
1046.69,88.55275
1047.172,91.72736
1047.655,95.08169
1048.137,98.00484
1048.619,100.0534
1049.101,101.6309
1049.583,103.1572
1050.065,104.6552
1050.547,106.1492
1051.029,106.6273
1051.512,108.7467
1051.994,114.8233
1052.476,120.4312
1052.958,122.5779
1053.44,123.5745
1053.922,126.171
1054.404,130.3733
1054.886,134.675
1055.369,138.8677
1055.851,142.9734
1056.333,146.99
1056.815,150.9255
1057.297,154.5141
1057.779,158.1647
1058.261,162.2691
1058.743,166.8728
1059.225,172.014
1059.708,177.7589
1060.19,183.8247
1060.672,190.8732
1061.154,197.368
1061.636,201.3256
1062.118,205.0564
1062.6,211.3302
1063.082,219.9609
1063.564,228.7967
1064.047,237.1848
1064.529,246.2243
1065.011,256.0542
1065.493,267.0209
1065.975,280.1809
1066.457,293.9783
1066.939,306.1172
1067.421,317.2151
1067.904,329.771
1068.386,344.2231
1068.868,361.1585
1069.35,380.8457
1069.832,402.975
1070.314,427.9085
1070.796,454.7772
1071.278,481.7607
1071.76,509.9582
1072.243,542.8684
1072.725,581.6124
1073.207,622.8726
1073.689,666.4033
1074.171,710.6069
1074.653,754.2211
1075.135,798.6346
1075.617,844.7663
1076.099,893.2267
1076.582,944.7038
1077.064,999.5841
1077.546,1053.841
1078.028,1103.803
1078.51,1155.366
1078.992,1213.281
1079.474,1273.058
1079.956,1329.313
1080.439,1384.347
1080.921,1444.254
1081.403,1510.344
1081.885,1575.742
1082.367,1636.526
1082.849,1697.547
1083.331,1762.196
1083.813,1826.501
1084.295,1891.052
1084.778,1951.084
1085.26,2000.669
1085.742,2038.408
1086.224,2066.367
1086.706,2088.538
1087.188,2096.154
1087.67,2090.191
1088.152,2063.239
1088.635,2004.406
1089.117,1923.771
1089.599,1834.424
1090.081,1738.402
1090.563,1634.154
1091.045,1518.782
1091.527,1401.347
1092.009,1280.333
1092.491,1164.345
1092.974,1058.23
1093.456,961.0397
1093.938,870.2816
1094.42,786.3943
1094.902,710.8456
1095.384,644.1997
1095.866,585.1654
1096.348,535.4274
1096.83,490.6111
1097.313,448.6341
1097.795,409.963
1098.277,374.9709
1098.759,343.7535
1099.241,316.7433
1099.723,294.2686
1100.205,273.7714
1100.687,254.377
1101.17,237.065
1101.652,222.8726
1102.134,210.3598
1102.616,198.5392
1103.098,187.4521
1103.58,177.1904
1104.062,167.8122
1104.544,159.5641
1105.026,153.4225
1105.509,147.2232
1105.991,139.7206
1106.473,132.6704
1106.955,127.4904
1107.437,123.3124
1107.919,118.6799
1108.401,113.5469
1108.883,109.1799
1109.365,106.2934
1109.848,103.3392
1110.33,100.4456
1110.812,97.01672
1111.294,91.81371
1111.776,86.64075
1112.258,83.90564
1112.74,83.13783
1113.222,81.19485
1113.705,76.62005
1114.187,73.67563
1114.669,74.13761
1115.151,74.20543
1115.633,72.48685
1116.115,70.22984
1116.597,68.30768
1117.079,66.65016
1117.562,65.06175
1118.044,63.50644
1118.526,62.19542
1119.008,61.43931
1119.49,60.36221
1119.972,58.23258
1120.454,56.58846
1120.936,56.65801
1121.418,57.51502
1121.901,57.64031
1122.383,57.02322
1122.865,56.20206
1123.347,55.06591
1123.829,53.95597
1124.311,52.70607
1124.793,51.97923
1125.275,52.33894
1125.757,52.86881
1126.24,52.48143
1126.722,51.33889
1127.204,50.24468
1127.686,49.07991
1128.168,48.67728
1128.65,49.35833
1129.132,49.50576
1129.614,48.46468
1130.097,47.36733
1130.579,47.17105
1131.061,47.49419
1131.543,47.41806
1132.025,46.93771
1132.507,46.43507
1132.989,45.88811
1133.471,45.6714
1133.953,45.88368
1134.436,46.12098
1134.918,46.16714
1135.4,46.02268
1135.882,45.68674
1136.364,45.15964
1136.846,44.26328
1137.328,43.1019
1137.81,42.75077
1138.292,43.24536
1138.775,43.37846
1139.257,42.69955
1139.739,42.08842
1140.221,42.42018
1140.703,43.12061
1141.185,42.99501
1141.667,42.32506
1142.149,41.91946
1142.632,41.77135
1143.114,41.63436
1143.596,41.47236
1144.078,41.51141
1144.56,41.91019
1145.042,42.29243
1145.524,42.14701
1146.006,41.75614
1146.489,41.47105
1146.971,41.31945
1147.453,41.44548
1147.935,41.74066
1148.417,41.90463
1148.899,41.8155
1149.381,41.32856
1149.863,39.77936
1150.345,38.57875
1150.828,39.48644
1151.31,41.04364
1151.792,41.78365
1152.274,41.78621
1152.756,41.16814
1153.238,40.18888
1153.72,39.9041
1154.202,41.11467
1154.684,41.9682
1155.167,40.9129
1155.649,39.88005
1156.131,40.54214
1156.613,41.54106
1157.095,41.05228
1157.577,39.64219
1158.059,39.27804
1158.541,40.46223
1159.024,41.3627
1159.506,41.54163
1159.988,41.38856
1160.47,40.64023
1160.952,39.99371
1161.434,40.0894
1161.916,40.42724
1162.398,40.15736
1162.88,39.31355
1163.363,38.94953
1163.845,39.49492
1164.327,39.72001
1164.809,39.26224
1165.291,39.10427
1165.773,39.67031
1166.255,40.4782
1166.737,41.22827
1167.219,41.84763
1167.702,42.13937
1168.184,42.08327
1168.666,41.92616
1169.148,41.68135
1169.63,41.23629
1170.112,40.51843
1170.594,39.83398
1171.076,39.30354
1171.559,39.04848
1172.041,39.27645
1172.523,39.83256
1173.005,40.1607
1173.487,40.26562
1173.969,40.16366
1174.451,39.87656
1174.933,39.59234
1175.416,39.38242
1175.898,39.57105
1176.38,40.41673
1176.862,41.49651
1177.344,42.48357
1177.826,43.09442
1178.308,42.30483
1178.79,40.69524
1179.272,39.65403
1179.755,39.33673
1180.237,39.48151
1180.719,39.95416
1181.201,40.41544
1181.683,40.59749
1182.165,40.69801
1182.647,40.95267
1183.129,41.19476
1183.611,41.2289
1184.094,41.11625
1184.576,41.02134
1185.058,40.91207
1185.54,40.42625
1186.022,39.2234
1186.504,38.78245
1186.986,40.77913
1187.468,42.37455
1187.951,41.87264
1188.433,40.7042
1188.915,39.66069
1189.397,38.99255
1189.879,39.07702
1190.361,39.93323
1190.843,40.72655
1191.325,41.82452
1191.807,42.12046
1192.29,40.87643
1192.772,39.87777
1193.254,39.90495
1193.736,40.09483
1194.218,39.47163
1194.7,38.6474
1195.182,39.41006
1195.664,41.99883
1196.146,43.05335
1196.629,42.26486
1197.111,41.63943
1197.593,41.54133
1198.075,41.1455
1198.557,39.9783
1199.039,38.89255
1199.521,38.86376
1200.003,39.54255
1200.486,40.08122
1200.968,40.47017
1201.45,40.53123
1201.932,40.35165
1202.414,40.5177
1202.896,41.06866
1203.378,41.30759
1203.86,40.84482
1204.343,40.29397
1204.825,40.43745
1205.307,40.73751
1205.789,40.27254
1206.271,39.63095
1206.753,39.86977
1207.235,40.62168
1207.717,40.86695
1208.199,40.46846
1208.682,40.08721
1209.164,39.84834
1209.646,40.16837
1210.128,42.22826
1210.61,43.72942
1211.092,42.46812
1211.574,40.77173
1212.056,41.3941
1212.538,43.14053
1213.021,42.92175
1213.503,40.29216
1213.985,38.55394
1214.467,38.0032
1214.949,38.29889
1215.431,40.12586
1215.913,41.62025
1216.395,42.12078
1216.878,42.00555
1217.36,41.47569
1217.842,40.72782
1218.324,40.27579
1218.806,40.12661
1219.288,39.95995
1219.77,39.75197
1220.252,40.11727
1220.734,41.16145
1221.217,41.72959
1221.699,41.30747
1222.181,40.78542
1222.663,41.08754
1223.145,41.679
1223.627,41.47219
1224.109,40.82622
1224.591,40.4885
1225.073,40.47563
1225.556,40.94608
1226.038,41.6836
1226.52,41.82774
1227.002,41.04456
1227.484,40.09395
1227.966,39.03666
1228.448,38.61919
1228.93,40.01914
1229.413,41.64454
1229.895,42.10491
1230.377,41.863
1230.859,41.5252
1231.341,41.22907
1231.823,41.17083
1232.305,41.53765
1232.787,41.56661
1233.27,40.53637
1233.752,40.10872
1234.234,41.02491
1234.716,41.98528
1235.198,42.41357
1235.68,42.42899
1236.162,42.1345
1236.644,41.57386
1237.126,40.87413
1237.609,39.97412
1238.091,39.59325
1238.573,39.76308
1239.055,40.24282
1239.537,40.98
1240.019,41.60564
1240.501,41.92009
1240.983,41.96828
1241.465,41.68269
1241.948,41.36288
1242.43,41.77313
1242.912,42.48042
1243.394,42.54654
1243.876,42.1357
1244.358,41.77139
1244.84,41.54749
1245.322,41.2538
1245.805,40.76643
1246.287,40.65175
1246.769,41.7492
1247.251,42.65123
1247.733,42.19928
1248.215,41.62055
1248.697,41.93133
1249.179,42.6905
1249.661,43.46335
1250.144,44.08057
1250.626,43.75679
1251.108,41.96334
1251.59,40.77902
1252.072,40.27703
1252.554,40.26937
1253.036,40.88884
1253.518,41.61022
1254.0,42.27646
1254.483,42.54464
1254.965,41.90279
1255.447,40.72147
1255.929,40.16779
1256.411,40.15467
1256.893,40.07738
1257.375,39.94709
1257.857,39.99014
1258.34,40.21186
1258.822,40.34746
1259.304,40.28678
1259.786,40.29757
1260.268,40.57636
1260.75,41.07407
1261.232,42.15889
1261.714,43.03662
1262.197,42.43739
1262.679,41.37228
1263.161,41.4166
1263.643,42.36652
1264.125,43.03801
1264.607,43.21292
1265.089,42.99437
1265.571,41.88072
1266.053,41.19188
1266.536,41.43942
1267.018,41.64846
1267.5,41.20652
1267.982,41.01776
