Raman shift,Intensity
752.29475,463.82201
753.91051,463.16419
755.52627,462.50636
757.14202,461.84854
758.75778,460.53289
758.75778,459.87506
758.75778,461.19071
760.37353,459.87506
760.37353,459.21724
761.98929,459.21724
763.60504,457.24377
763.60504,459.21724
763.60504,458.55942
763.60504,457.90159
765.2208,456.58594
765.2208,457.24377
766.83656,455.27029
766.83656,456.58594
766.83656,455.92812
768.45231,453.95464
768.45231,455.27029
768.45231,454.61247
770.06807,453.95464
771.68382,451.98117
771.68382,453.95464
771.68382,453.29682
771.68382,452.639
773.29958,450.66552
773.29958,451.98117
773.29958,451.32335
774.91533,450.0077
774.91533,450.66552
776.53109,449.34987
776.53109,450.0077
778.14685,449.34987
779.7626,449.34987
781.37836,447.3764
781.37836,449.34987
781.37836,448.69205
781.37836,446.71858
781.37836,448.03422
781.37836,446.06075
782.99411,444.7451
782.99411,445.40293
784.60987,444.7451
786.22563,444.08728
786.22563,444.7451
787.84138,444.08728
789.45714,444.08728
791.07289,444.08728
792.68865,442.1138
792.68865,444.08728
792.68865,443.42945
792.68865,442.77163
794.3044,442.1138
795.92016,441.45598
795.92016,442.1138
797.53592,440.79816
797.53592,441.45598
797.53592,440.14033
799.15167,440.14033
800.76743,440.14033
802.38318,440.14033
802.38318,439.48251
803.99894,438.16686
803.99894,438.82468
805.61469,438.16686
807.23045,438.16686
808.84621,438.16686
810.46196,437.50903
812.07772,436.85121
813.69347,435.53556
813.69347,434.87774
813.69347,436.19338
813.69347,434.21991
815.30923,434.21991
815.30923,433.56209
816.92498,433.56209
818.54074,433.56209
818.54074,432.90426
820.1565,432.90426
820.1565,432.24644
821.77225,432.24644
823.38801,431.58861
823.38801,430.93079
823.38801,430.27296
823.38801,429.61514
823.38801,428.95732
823.38801,428.29949
823.38801,427.64167
823.38801,426.98384
825.00376,426.98384
826.61952,426.98384
828.23528,426.98384
829.85103,427.64167
831.46679,428.29949
833.08254,428.95732
834.6983,428.29949
836.31405,428.95732
837.92981,428.95732
839.54557,428.95732
841.16132,428.29949
842.77708,427.64167
844.39283,426.98384
846.00859,426.32602
847.62434,426.32602
849.2401,426.32602
850.85586,430.27296
850.85586,426.98384
850.85586,427.64167
850.85586,428.29949
850.85586,428.95732
850.85586,429.61514
852.47161,430.27296
854.08737,430.93079
854.08737,430.27296
855.70312,430.93079
857.31888,430.93079
858.93464,430.27296
860.55039,429.61514
862.16615,430.27296
863.7819,430.93079
865.39766,431.58861
867.01341,431.58861
868.62917,430.93079
870.24493,430.93079
871.86068,428.29949
871.86068,431.58861
871.86068,430.93079
871.86068,430.27296
871.86068,429.61514
871.86068,428.95732
873.47644,427.64167
873.47644,428.29949
875.09219,427.64167
876.70795,427.64167
878.3237,427.64167
879.93946,427.64167
881.55522,425.01037
881.55522,427.64167
881.55522,426.98384
881.55522,425.66819
883.17097,426.32602
883.17097,419.08995
883.17097,426.98384
883.17097,424.35254
883.17097,423.69472
883.17097,418.43212
883.17097,419.74777
884.78673,423.0369
884.78673,418.43212
884.78673,420.4056
884.78673,422.37907
886.40248,421.72125
886.40248,418.43212
886.40248,421.06342
888.01824,418.43212
889.63399,418.43212
891.24975,415.143
891.24975,418.43212
891.24975,417.7743
891.24975,416.45865
891.24975,415.80083
891.24975,417.11648
892.86551,417.7743
892.86551,415.143
892.86551,414.48518
894.48126,414.48518
894.48126,417.7743
894.48126,417.11648
896.09702,416.45865
896.09702,414.48518
896.09702,415.143
896.09702,415.80083
896.09702,417.11648
896.09702,413.82735
897.71277,414.48518
897.71277,413.82735
899.32853,414.48518
899.32853,413.82735
900.94429,413.82735
900.94429,415.143
902.56004,415.80083
902.56004,413.82735
904.1758,413.82735
904.1758,416.45865
905.79155,414.48518
905.79155,415.80083
907.40731,414.48518
907.40731,415.143
909.02306,415.143
909.02306,414.48518
910.63882,414.48518
910.63882,415.80083
912.25458,415.143
912.25458,416.45865
913.87033,415.80083
913.87033,417.11648
915.48609,417.7743
915.48609,416.45865
917.10184,417.11648
917.10184,417.7743
918.7176,417.7743
918.7176,418.43212
918.7176,417.11648
920.33335,417.11648
921.94911,416.45865
921.94911,415.80083
923.56487,415.143
923.56487,414.48518
923.56487,415.80083
925.18062,413.82735
926.79638,412.5117
926.79638,413.16953
926.79638,413.82735
928.41213,412.5117
928.41213,410.53823
928.41213,411.19606
928.41213,409.88041
928.41213,411.85388
928.41213,409.22258
930.02789,409.22258
931.64365,409.88041
933.2594,410.53823
934.87516,411.19606
936.49091,411.85388
938.10667,411.85388
939.72242,411.85388
941.33818,411.85388
942.95394,411.19606
944.56969,410.53823
946.18545,409.88041
947.8012,409.22258
949.41696,409.88041
951.03271,409.88041
952.64847,410.53823
952.64847,411.19606
952.64847,411.85388
952.64847,412.5117
952.64847,413.16953
952.64847,413.82735
952.64847,414.48518
954.26423,414.48518
954.26423,415.143
955.87998,415.143
957.49574,415.143
957.49574,415.80083
957.49574,416.45865
959.11149,416.45865
960.72725,416.45865
962.343,416.45865
963.95876,416.45865
965.57452,417.11648
967.19027,418.43212
967.19027,417.7743
968.80603,418.43212
968.80603,419.08995
970.42178,419.74777
970.42178,419.08995
972.03754,420.4056
972.03754,419.74777
973.6533,421.72125
973.6533,421.06342
975.26905,422.37907
976.88481,423.69472
976.88481,423.0369
978.50056,423.0369
978.50056,423.69472
978.50056,424.35254
978.50056,425.01037
980.11632,424.35254
980.11632,423.69472
980.11632,422.37907
980.11632,425.01037
980.11632,423.0369
981.73207,416.45865
981.73207,421.72125
981.73207,421.06342
981.73207,420.4056
981.73207,419.74777
981.73207,417.7743
981.73207,419.08995
981.73207,418.43212
981.73207,417.11648
983.34783,416.45865
983.34783,415.143
983.34783,415.80083
984.96359,415.80083
984.96359,415.143
986.57934,415.143
986.57934,415.80083
988.1951,415.80083
988.1951,415.143
989.81085,415.80083
989.81085,413.82735
989.81085,414.48518
989.81085,415.143
991.42661,413.16953
991.42661,412.5117
991.42661,413.82735
991.42661,415.80083
991.42661,415.143
991.42661,414.48518
993.04236,412.5117
993.04236,413.82735
993.04236,414.48518
993.04236,411.85388
993.04236,413.16953
994.65812,413.16953
994.65812,411.85388
994.65812,412.5117
996.27388,411.85388
996.27388,411.19606
996.27388,412.5117
997.88963,410.53823
997.88963,411.85388
999.50539,410.53823
999.50539,412.5117
999.50539,408.56476
999.50539,409.22258
1001.12114,413.16953
1001.12114,410.53823
1001.12114,409.88041
1001.12114,413.82735
1002.7369,413.16953
1002.7369,415.143
1002.7369,411.19606
1002.7369,411.85388
1002.7369,414.48518
1002.7369,410.53823
1002.7369,413.82735
1002.7369,412.5117
1004.35266,411.19606
1004.35266,415.80083
1005.96841,416.45865
1005.96841,413.16953
1005.96841,412.5117
1005.96841,411.85388
1007.58417,413.16953
1007.58417,417.11648
1007.58417,416.45865
1009.19992,417.11648
1009.19992,413.16953
1009.19992,413.82735
1010.81568,413.82735
1010.81568,414.48518
1010.81568,415.143
1010.81568,417.11648
1010.81568,417.7743
1012.43143,415.143
1012.43143,417.11648
1012.43143,416.45865
1012.43143,415.80083
1012.43143,418.43212
1014.04719,418.43212
1014.04719,416.45865
1015.66295,417.11648
1015.66295,418.43212
1017.2787,418.43212
1017.2787,417.7743
1018.89446,417.7743
1018.89446,417.11648
1018.89446,416.45865
1018.89446,415.80083
1018.89446,415.143
1018.89446,419.74777
1018.89446,419.08995
1020.51021,413.82735
1020.51021,413.16953
1020.51021,414.48518
1020.51021,415.143
1022.12597,412.5117
1022.12597,413.16953
1023.74172,412.5117
1025.35748,411.85388
1026.97324,411.85388
1026.97324,410.53823
1026.97324,409.88041
1026.97324,411.19606
1026.97324,409.22258
1026.97324,408.56476
1028.58899,409.22258
1028.58899,408.56476
1028.58899,411.19606
1030.20475,411.19606
1030.20475,410.53823
1030.20475,409.88041
1031.8205,411.19606
1033.43626,411.19606
1035.05201,411.85388
1035.05201,411.19606
1036.66777,411.85388
1036.66777,412.5117
1038.28353,416.45865
1038.28353,412.5117
1038.28353,413.16953
1038.28353,413.82735
1038.28353,414.48518
1038.28353,415.143
1038.28353,415.80083
1039.89928,416.45865
1039.89928,417.11648
1039.89928,417.7743
1039.89928,418.43212
1041.51504,418.43212
1041.51504,419.08995
1043.13079,419.74777
1044.74655,420.4056
1046.36231,420.4056
1047.97806,421.06342
1047.97806,421.72125
1047.97806,422.37907
1060.90411,406.59128
1060.90411,407.24911
1062.51986,407.90693
1062.51986,404.61781
1062.51986,405.93346
1062.51986,405.27564
1062.51986,409.22258
1064.13562,403.95999
1064.13562,415.80083
1064.13562,402.64434
1064.13562,415.143
1064.13562,414.48518
1064.13562,403.30216
1064.13562,409.88041
1064.13562,412.5117
1064.13562,408.56476
1065.75137,416.45865
1065.75137,413.82735
1065.75137,413.16953
1065.75137,411.85388
1065.75137,411.19606
1065.75137,410.53823
1065.75137,401.98651
1065.75137,401.32869
1067.36713,400.67087
1067.36713,400.01304
1068.98289,399.35522
1068.98289,398.69739
1068.98289,398.03957
1078.35573,407.08355
1098.06649,412.5117
1098.06649,411.85388
1099.68225,411.19606
1099.68225,410.53823
1101.298,410.53823
1102.91376,409.88041
1104.52951,409.88041
1104.52951,409.22258
1106.14527,409.22258
1106.14527,408.56476
1106.14527,407.90693
1106.14527,407.24911
1107.76102,407.24911
1109.37678,407.24911
1110.99254,407.24911
1110.99254,406.59128
1112.60829,406.59128
1112.60829,405.93346
1114.22405,405.93346
1114.22405,405.27564
1115.8398,405.27564
1115.8398,404.61781
1115.8398,403.95999
1115.8398,403.30216
1115.8398,402.64434
1115.8398,401.98651
1117.45556,401.98651
1117.45556,401.32869
1119.07132,401.32869
1119.07132,400.67087
1120.68707,400.67087
1122.30283,400.67087
1123.91858,400.67087
1125.53434,400.67087
1125.53434,400.01304
1127.15009,400.01304
1127.15009,399.35522
1127.15009,398.69739
1127.15009,398.03957
1127.15009,397.38174
1127.15009,396.72392
1127.15009,396.06609
1127.15009,395.40827
1128.76585,394.75045
1130.38161,394.75045
1131.99736,394.75045
1133.61312,394.75045
1135.22887,395.40827
1136.84463,396.06609
1138.46038,396.72392
1140.07614,397.38174
1141.6919,397.38174
1143.30765,397.38174
1144.92341,396.72392
1146.53916,396.06609
1148.15492,395.40827
1149.77068,395.40827
1151.38643,396.72392
1151.38643,396.06609
1153.00219,397.38174
1153.00219,396.72392
1153.00219,398.69739
1153.00219,398.03957
1154.61794,398.69739
1156.2337,400.01304
1156.2337,399.35522
1157.84945,401.98651
1157.84945,400.01304
1157.84945,400.67087
1157.84945,401.32869
1157.84945,403.95999
1157.84945,403.30216
1157.84945,402.64434
1159.46521,404.61781
1161.08097,404.61781
1162.69672,404.61781
1164.31248,405.27564
1165.92823,405.27564
1167.54399,404.61781
1169.15974,403.95999
1170.7755,403.30216
1172.39126,403.95999
1174.00701,404.61781
1175.62277,404.61781
1177.23852,404.61781
1178.85428,403.95999
1180.47003,403.30216
1182.08579,402.64434
1183.70155,401.98651
1185.3173,401.32869
1186.93306,401.32869
1188.54881,401.98651
1188.54881,401.32869
1188.54881,402.64434
1188.54881,403.30216
1188.54881,403.95999
1188.54881,404.61781
1188.54881,405.27564
1190.16457,405.27564
1190.16457,405.93346
1190.16457,406.59128
1191.78033,406.59128
1193.39608,406.59128
1193.39608,407.24911
1193.39608,407.90693
1193.39608,408.56476
1195.01184,408.56476
1196.62759,408.56476
1198.24335,408.56476
1199.8591,408.56476
1201.47486,409.22258
1201.47486,409.88041
1201.47486,410.53823
1201.47486,411.19606
1201.47486,411.85388
1201.47486,412.5117
1201.47486,413.16953
1201.47486,408.56476
1203.09062,413.82735
1203.09062,413.16953
1204.70637,413.82735
1206.32213,413.82735
1207.93788,414.48518
1209.55364,413.82735
1211.16939,413.16953
1212.78515,412.5117
1212.78515,411.85388
1212.78515,411.19606
1212.78515,413.16953
1214.40091,411.19606
1214.40091,410.53823
1216.01666,410.53823
1216.01666,409.88041
1217.63242,409.88041
1219.24817,409.88041
1220.86393,409.88041
1222.47969,409.88041
1224.09544,409.22258
1224.09544,409.88041
1225.7112,408.56476
1225.7112,409.22258
1225.7112,407.90693
1227.32695,407.90693
1227.32695,407.24911
1228.94271,407.24911
1228.94271,406.59128
1228.94271,405.93346
1230.55846,405.93346
1230.55846,405.27564
1232.17422,405.27564
1233.78998,405.27564
1233.78998,404.61781
1233.78998,403.95999
1233.78998,403.30216
1233.78998,402.64434
1233.78998,401.98651
1235.40573,401.98651
1235.40573,401.32869
1237.02149,401.32869
1237.02149,400.67087
1238.63724,400.67087
1240.253,400.67087
1241.86875,400.01304
1243.48451,400.01304
1245.10027,400.01304
1246.71602,400.01304
1246.71602,399.35522
1246.71602,398.69739
1248.33178,398.69739
1248.33178,399.35522
1248.33178,400.01304
1249.94753,400.67087
1251.56329,401.32869
1251.56329,401.98651
1253.17904,402.64434
1253.17904,401.98651
1253.17904,403.30216
1254.7948,413.16953
1254.7948,405.27564
1254.7948,413.82735
1254.7948,403.95999
1254.7948,406.59128
1254.7948,404.61781
1254.7948,405.93346
1256.41056,413.82735
1256.41056,407.24911
1256.41056,412.5117
1258.02631,407.90693
1258.02631,410.53823
1258.02631,409.22258
1258.02631,409.88041
1258.02631,408.56476
1258.02631,411.85388
1258.02631,413.82735
1259.64207,413.82735
1259.64207,411.19606
1261.25782,413.82735
1262.87358,418.43212
1262.87358,419.08995
1262.87358,417.7743
1262.87358,419.74777
1262.87358,413.82735
1262.87358,414.48518
1262.87358,415.143
1262.87358,415.80083
1262.87358,416.45865
1262.87358,417.11648
1264.48934,419.74777
1266.10509,420.4056
1267.72085,420.4056
1269.3366,419.74777
1270.95236,419.08995
1272.56811,418.43212
1274.18387,418.43212
1274.18387,419.08995
1274.18387,417.7743
1275.79963,415.80083
1275.79963,417.7743
1275.79963,417.11648
1275.79963,416.45865
1277.41538,415.143
1277.41538,415.80083
1279.03114,415.143
1280.64689,415.143
1282.26265,415.143
1283.8784,410.53823
1283.8784,413.82735
1283.8784,411.85388
1283.8784,411.19606
1283.8784,414.48518
1283.8784,413.16953
1283.8784,412.5117
1285.49416,409.88041
1287.10992,407.24911
1287.10992,408.56476
1287.10992,409.22258
1287.10992,407.90693
1287.10992,409.88041
1288.72567,408.56476
1288.72567,409.22258
1288.72567,407.90693
1288.72567,407.24911
1290.34143,409.22258
1291.95718,409.88041
1293.57294,410.53823
1295.1887,411.19606
1295.1887,411.85388
1296.80445,412.5117
1298.42021,412.5117
1300.03596,412.5117
1301.65172,412.5117
1303.26747,412.5117
1304.88323,413.16953
1304.88323,413.82735
1304.88323,414.48518
1304.88323,415.143
1304.88323,415.80083
1304.88323,416.45865
1306.49899,416.45865
1308.11474,416.45865
1309.7305,415.80083
1311.34625,415.143
1312.96201,415.80083
1314.57776,416.45865
1316.19352,416.45865
1317.80928,416.45865
1317.80928,415.80083
1319.42503,415.80083
1319.42503,415.143
1321.04079,415.143
1321.04079,414.48518
1322.65654,414.48518
1324.2723,413.82735
1324.2723,413.16953
1324.2723,412.5117
1324.2723,411.85388
1324.2723,411.19606
1324.2723,410.53823
1324.2723,409.88041
1325.88805,409.22258
1327.50381,409.22258
1329.11957,409.22258
1330.73532,409.88041
1332.35108,410.53823
1333.96683,409.88041
1335.58259,409.88041
1337.19835,409.88041
1337.19835,410.53823
1338.8141,410.53823
1338.8141,411.19606
1340.42986,411.19606
1340.42986,411.85388
1342.04561,411.85388
1342.04561,412.5117
1343.66137,412.5117
1343.66137,413.16953
1343.66137,413.82735
1345.27712,413.82735
1345.27712,414.48518
1345.27712,415.143
1345.27712,415.80083
1345.27712,416.45865
1345.27712,417.11648
1345.27712,417.7743
1345.27712,418.43212
1346.89288,418.43212
1348.50864,418.43212
1350.12439,417.7743
1351.74015,417.11648
1353.3559,417.7743
1354.97166,418.43212
1354.97166,417.7743
1356.58741,417.7743
1358.20317,417.7743
1358.20317,417.11648
1359.81893,417.11648
1359.81893,416.45865
1359.81893,415.80083
1361.43468,415.80083
1361.43468,408.56476
1363.05044,415.143
1363.05044,413.82735
1363.05044,413.16953
1363.05044,412.5117
1363.05044,411.85388
1363.05044,414.48518
1363.05044,408.56476
1363.05044,409.22258
1364.66619,411.19606
1364.66619,409.88041
1364.66619,408.56476
1366.28195,410.53823
1366.28195,408.56476
1367.89771,408.56476
1367.89771,407.90693
1369.51346,407.90693
1369.51346,407.24911
1371.12922,407.24911
1371.12922,406.59128
1371.12922,405.93346
1371.12922,404.61781
1371.12922,405.27564
1372.74497,405.27564
1374.36073,404.61781
1375.97648,403.95999
1377.59224,403.95999
1379.208,403.95999
1380.82375,404.61781
1382.43951,404.61781
1382.43951,405.27564
1384.05526,405.93346
1384.05526,405.27564
1385.67102,405.93346
1387.28677,405.93346
1388.90253,406.59128
1390.51829,407.24911
1392.13404,408.56476
1392.13404,407.90693
1392.13404,409.22258
1392.13404,407.24911
1392.13404,409.88041
1393.7498,409.88041
1395.36555,410.53823
1396.98131,411.19606
1398.59706,411.19606
1400.21282,410.53823
1401.82858,409.88041
1403.44433,409.22258
1405.06009,408.56476
1406.67584,408.56476
1408.2916,408.56476
1409.90736,409.22258
1409.90736,409.88041
1411.52311,409.88041
1413.13887,410.53823
1413.13887,411.19606
1413.13887,411.85388
1413.13887,412.5117
1413.13887,413.16953
1413.13887,413.82735
1413.13887,414.48518
1414.75462,415.143
1416.37038,415.143
1417.98613,415.143
1419.60189,414.48518
1421.21765,413.82735
1422.8334,413.16953
1424.44916,412.5117
1426.06491,412.5117
1427.68067,411.85388
1429.29642,411.85388
1430.91218,412.5117
1432.52794,413.16953
1434.14369,413.82735
1435.75945,413.82735
1437.3752,413.82735
1438.99096,413.82735
1440.60672,413.82735
1442.22247,413.16953
1443.83823,412.5117
1445.45398,412.5117
1447.06974,413.16953
1448.68549,412.5117
1450.30125,411.85388
1451.91701,411.85388
1453.53276,412.5117
1455.14852,412.5117
1455.14852,413.16953
1455.14852,413.82735
1455.14852,414.48518
1455.14852,415.143
1455.14852,415.80083
1456.76427,416.45865
1458.38003,417.11648
1459.99578,417.7743
1461.61154,417.7743
1463.2273,417.7743
1464.84305,417.7743
1466.45881,417.7743
1468.07456,417.7743
1469.69032,417.7743
1471.30607,422.37907
1471.30607,417.7743
1472.92183,417.7743
1472.92183,418.43212
1472.92183,423.69472
1472.92183,423.0369
1472.92183,421.72125
1474.53759,418.43212
1474.53759,421.06342
1474.53759,419.74777
1474.53759,425.01037
1474.53759,424.35254
1474.53759,419.08995
1476.15334,420.4056
1476.15334,423.69472
1476.15334,419.74777
1476.15334,425.66819
1476.15334,428.29949
1476.15334,423.0369
1477.7691,427.64167
1477.7691,426.32602
1477.7691,428.95732
1477.7691,429.61514
1477.7691,430.27296
1477.7691,430.93079
1477.7691,431.58861
1477.7691,432.24644
1477.7691,421.72125
1477.7691,421.06342
1477.7691,420.4056
1477.7691,424.35254
1477.7691,422.37907
1479.38485,425.01037
1479.38485,432.90426
1479.38485,433.56209
1479.38485,426.98384
1481.00061,426.32602
1481.00061,428.29949
1481.00061,426.98384
1481.00061,425.66819
1481.00061,434.21991
1481.00061,427.64167
1482.61637,428.95732
1482.61637,434.21991
1482.61637,432.24644
1484.23212,430.27296
1484.23212,434.87774
1484.23212,432.24644
1484.23212,434.21991
1484.23212,431.58861
1484.23212,430.93079
1484.23212,435.53556
1484.23212,429.61514
1485.84788,432.90426
1485.84788,432.24644
1485.84788,433.56209
1485.84788,435.53556
1485.84788,436.19338
1487.46363,436.19338
1487.46363,435.53556
1487.46363,434.87774
1487.46363,434.21991
1487.46363,433.56209
1489.07939,436.19338
1489.07939,434.87774
1490.69514,435.53556
1490.69514,436.85121
1492.3109,436.19338
1492.3109,437.50903
1493.92666,436.19338
1495.54241,436.19338
1497.15817,432.90426
1497.15817,436.19338
1497.15817,435.53556
1497.15817,434.87774
1497.15817,434.21991
1497.15817,433.56209
1497.15817,431.58861
1497.15817,432.24644
1498.77392,431.58861
1500.38968,431.58861
1502.00543,426.98384
1502.00543,425.01037
1502.00543,431.58861
1503.62119,427.64167
1503.62119,428.95732
1503.62119,426.32602
1503.62119,423.69472
1503.62119,423.0369
1503.62119,425.66819
1503.62119,431.58861
1503.62119,424.35254
1505.23695,431.58861
1505.23695,430.93079
1505.23695,422.37907
1505.23695,429.61514
1505.23695,428.29949
1505.23695,421.72125
1506.8527,418.43212
1506.8527,430.27296
1506.8527,421.06342
1506.8527,419.74777
1506.8527,417.7743
1506.8527,419.08995
1508.46846,416.45865
1508.46846,417.11648
1508.46846,420.4056
1510.08421,415.80083
1511.69997,413.16953
1511.69997,413.82735
1511.69997,415.143
1511.69997,414.48518
1513.31573,413.82735
1513.31573,415.143
1513.31573,414.48518
1514.93148,416.45865
1514.93148,415.80083
1514.93148,420.4056
1514.93148,419.74777
1516.54724,419.08995
1516.54724,420.4056
1516.54724,417.11648
1518.16299,417.7743
1518.16299,418.43212
1518.16299,420.4056
1519.77875,421.06342
1521.3945,421.72125
1521.3945,422.37907
1523.01026,424.35254
1523.01026,423.0369
1523.01026,423.69472
1524.62602,425.66819
1524.62602,438.16686
1524.62602,426.98384
1524.62602,426.32602
1524.62602,438.82468
1524.62602,439.48251
1524.62602,428.95732
1524.62602,436.85121
1524.62602,437.50903
1524.62602,425.01037
1526.24177,440.14033
1526.24177,440.79816
1526.24177,430.27296
1526.24177,430.93079
1526.24177,431.58861
1526.24177,427.64167
1526.24177,428.29949
1526.24177,436.19338
1526.24177,442.77163
1526.24177,442.1138
1526.24177,429.61514
1526.24177,441.45598
1527.85753,432.24644
1527.85753,443.42945
1527.85753,432.90426
1527.85753,434.87774
1527.85753,434.21991
1527.85753,435.53556
1527.85753,444.7451
1529.47328,444.08728
1529.47328,445.40293
1529.47328,433.56209
1531.08904,446.06075
1532.70479,446.06075
1534.32055,446.71858
1534.32055,446.06075
1535.93631,450.0077
1535.93631,447.3764
1535.93631,448.03422
1535.93631,450.66552
1535.93631,448.69205
1535.93631,449.34987
1537.55206,450.66552
1537.55206,451.32335
1539.16782,451.98117
1539.16782,451.32335
1540.78357,453.29682
1540.78357,452.639
1542.39933,448.03422
1542.39933,451.98117
1542.39933,450.66552
1542.39933,450.0077
1542.39933,449.34987
1542.39933,448.69205
1542.39933,453.29682
1542.39933,447.3764
1542.39933,452.639
1544.01508,447.3764
1544.01508,451.32335
1545.63084,446.71858
1547.2466,446.06075
1548.86235,445.40293
1550.47811,444.7451
1552.09386,444.7451
1552.09386,442.77163
1552.09386,442.1138
1552.09386,441.45598
1552.09386,443.42945
1552.09386,444.08728
1553.70962,440.79816
1553.70962,440.14033
1553.70962,441.45598
1555.32538,440.14033
1556.94113,440.14033
1558.55689,439.48251
1560.17264,439.48251
1561.7884,440.14033
1563.40415,440.14033
1565.01991,440.79816
1565.01991,441.45598
1566.63567,442.1138
1568.25142,442.77163
1568.25142,443.42945
1568.25142,444.08728
1569.86718,444.08728
1569.86718,445.40293
1569.86718,444.7451
1571.48293,444.08728
1571.48293,445.40293
1571.48293,444.7451
1571.48293,443.42945
1573.09869,442.77163
1574.71444,442.77163
1576.3302,442.1138
1576.3302,441.45598
1576.3302,440.79816
1577.94596,440.79816
1577.94596,440.14033
1579.56171,439.48251
1579.56171,438.82468
1579.56171,438.16686
1579.56171,437.50903
1579.56171,436.85121
1581.17747,436.85121
1582.79322,436.85121
1584.40898,436.85121
1586.02474,436.19338
1586.02474,436.85121
1587.64049,436.19338
1589.25625,435.53556
1589.25625,434.87774
1589.25625,434.21991
1589.25625,433.56209
1589.25625,432.90426
1590.872,432.90426
1590.872,432.24644
1592.48776,431.58861
1594.10351,431.58861
1595.71927,431.58861
1595.71927,430.93079
1597.33503,430.93079
1598.95078,430.93079
1600.56654,431.58861
1602.18229,432.24644
1603.79805,432.90426
1605.4138,432.24644
1607.02956,432.24644
1608.64532,432.24644
1610.26107,431.58861
1610.26107,430.93079
1610.26107,430.27296
1610.26107,429.61514
1610.26107,428.95732
1611.87683,428.95732
1611.87683,428.29949
1611.87683,427.64167
1611.87683,426.98384
1613.49258,426.32602
1615.10834,426.32602
1616.72409,425.66819
1618.33985,425.66819
1619.95561,426.32602
1621.57136,426.98384
1623.18712,427.64167
1623.18712,428.29949
1624.80287,428.29949
1624.80287,428.95732
1624.80287,429.61514
1626.41863,429.61514
1626.41863,430.27296
1628.03439,430.27296
1628.03439,430.93079
1629.65014,430.93079
1631.2659,430.93079
1631.2659,431.58861
1631.2659,432.24644
1631.2659,432.90426
1632.88165,432.90426
1632.88165,433.56209
1634.49741,433.56209
1634.49741,434.21991
1636.11316,434.21991
1637.72892,434.21991
1639.34468,433.56209
1640.96043,432.90426
1642.57619,433.56209
1644.19194,434.21991
1645.8077,432.24644
1645.8077,431.58861
1645.8077,433.56209
1645.8077,432.90426
1645.8077,430.93079
1645.8077,434.21991
1647.42345,429.61514
1647.42345,430.27296
1647.42345,430.93079
1649.03921,429.61514
1650.65497,428.95732
1652.27072,428.95732
1653.88648,428.95732
1655.50223,428.95732
1657.11799,427.64167
1657.11799,428.95732
1657.11799,426.32602
1657.11799,425.66819
1657.11799,425.01037
1657.11799,428.29949
1657.11799,426.98384
1658.73375,424.35254
1658.73375,423.69472
1658.73375,425.01037
1660.3495,423.69472
1661.96526,423.0369
1661.96526,423.69472
1663.58101,423.0369
1665.19677,423.0369
1666.81252,423.0369
1668.42828,423.69472
1670.04404,424.35254
1670.04404,425.01037
1671.65979,425.66819
1671.65979,426.32602
1673.27555,426.98384
1674.8913,426.98384
1676.50706,426.98384
1678.12281,427.64167
1679.73857,426.98384
1681.35433,426.32602
1682.97008,425.66819
1684.58584,425.66819
1684.58584,430.27296
1684.58584,430.93079
1686.20159,426.98384
1686.20159,428.29949
1686.20159,428.95732
1686.20159,429.61514
1686.20159,426.32602
1686.20159,427.64167
1686.20159,431.58861
1687.81735,428.95732
1687.81735,432.90426
1687.81735,433.56209
1687.81735,434.21991
1687.81735,434.87774
1687.81735,435.53556
1687.81735,432.24644
1689.4331,437.50903
1689.4331,436.85121
1689.4331,436.19338
1691.04886,438.16686
1692.66462,438.16686
1692.66462,438.82468
1694.28037,439.48251
1694.28037,438.82468
1695.89613,439.48251
1697.51188,439.48251
1699.12764,438.82468
1700.7434,439.48251
1702.35915,440.14033
1703.97491,440.14033
1705.59066,439.48251
1705.59066,438.82468
1705.59066,438.16686
1705.59066,437.50903
1705.59066,434.21991
1705.59066,434.87774
1705.59066,435.53556
1705.59066,436.19338
1705.59066,436.85121
1707.20642,433.56209
1707.20642,432.90426
1708.82217,432.90426
1710.43793,432.90426
1710.43793,432.24644
1710.43793,429.61514
1712.05369,428.95732
1712.05369,430.27296
1712.05369,431.58861
1712.05369,427.64167
1712.05369,426.98384
1712.05369,432.90426
1713.66944,426.32602
1713.66944,425.66819
1713.66944,430.93079
1713.66944,425.01037
1713.66944,428.29949
1715.2852,423.69472
1715.2852,424.35254
1716.90095,423.0369
1716.90095,422.37907
1716.90095,421.06342
1716.90095,420.4056
1718.51671,419.74777
1718.51671,421.72125
1720.13246,419.08995
1721.74822,418.43212
1723.36398,417.11648
1723.36398,416.45865
1723.36398,417.7743
1723.36398,415.80083
1733.05851,428.95732
1733.05851,429.61514
1734.67427,427.64167
1734.67427,428.29949
1736.29002,427.64167
1737.90578,427.64167
1739.52153,427.64167
1741.13729,427.64167
1742.75305,426.98384
1744.3688,426.32602
1744.3688,425.66819
1745.98456,425.01037
1745.98456,424.35254
1745.98456,425.66819
1747.60031,425.01037
1749.21607,424.35254
1750.83182,423.69472
1752.44758,423.0369
1754.06334,423.0369
1755.67909,423.0369
1757.29485,423.69472
1757.29485,423.0369
1758.9106,425.66819
1758.9106,423.69472
1758.9106,424.35254
1758.9106,425.01037
1758.9106,426.98384
1758.9106,426.32602
1760.52636,426.98384
1762.14211,426.98384
1763.75787,426.98384
1765.37363,426.98384
1766.98938,427.64167
1766.98938,429.61514
1766.98938,428.29949
1766.98938,428.95732
1768.60514,430.93079
1768.60514,429.61514
1768.60514,430.27296
1770.22089,430.93079
1771.83665,431.58861
1773.45241,430.93079
1775.06816,430.93079
1776.68392,429.61514
1776.68392,430.27296
1778.29967,428.95732
1779.91543,428.29949
1781.53118,428.29949
1783.14694,428.29949
1784.7627,428.29949
1786.37845,426.98384
1786.37845,428.29949
1786.37845,427.64167
1787.99421,426.32602
1787.99421,426.98384
1789.60996,426.32602
1789.60996,425.66819
1791.22572,425.66819
1791.22572,425.01037
1792.84147,425.01037
1792.84147,424.35254
1794.45723,424.35254
1796.07299,424.35254
1797.68874,424.35254
1799.3045,424.35254
1800.92025,424.35254
1802.53601,423.69472
1802.53601,424.35254
1804.15177,423.69472
1805.76752,420.4056
1805.76752,419.74777
1805.76752,421.72125
1805.76752,422.37907
1805.76752,421.06342
1805.76752,423.0369
1805.76752,418.43212
1805.76752,419.08995
1807.38328,418.43212
1807.38328,417.7743
1808.99903,417.7743
1810.61479,417.7743
1812.23054,418.43212
1813.8463,417.7743
1815.46206,417.11648
1817.07781,417.11648
1818.69357,417.11648
1820.30932,418.43212
1820.30932,417.7743
1820.30932,419.74777
1820.30932,420.4056
1820.30932,419.08995
1821.92508,420.4056
1823.54083,421.06342
1825.15659,421.72125
1826.77235,425.01037
1826.77235,424.35254
1826.77235,423.69472
1826.77235,423.0369
1826.77235,422.37907
1828.3881,423.0369
1828.3881,424.35254
1828.3881,423.69472
1828.3881,425.01037
1830.00386,423.0369
1831.61961,423.0369
1833.23537,423.0369
1834.85112,422.37907
1834.85112,421.72125
1834.85112,419.08995
1834.85112,421.06342
1834.85112,417.7743
1834.85112,418.43212
1834.85112,419.74777
1834.85112,420.4056
1836.46688,417.11648
1838.08264,417.11648
1838.08264,415.80083
1838.08264,416.45865
1839.69839,415.143
1839.69839,414.48518
1839.69839,415.80083
1841.31415,414.48518
1842.9299,414.48518
1844.54566,414.48518
1846.16142,414.48518
1847.77717,413.82735
1847.77717,414.48518
1849.39293,413.82735
1851.00868,413.16953
1851.00868,412.5117
1852.62444,412.5117
1852.62444,411.85388
1852.62444,411.19606
1854.24019,411.19606
1854.24019,410.53823
1855.85595,409.88041
1855.85595,409.22258
1855.85595,410.53823
1857.47171,409.22258
1859.08746,409.88041
1860.70322,410.53823
1862.31897,411.19606
1862.31897,410.53823
1863.93473,411.19606
1863.93473,411.85388
1863.93473,412.5117
1865.55048,412.5117
1865.55048,413.16953
1867.16624,413.16953
1868.782,414.48518
1868.782,413.82735
1868.782,415.143
1868.782,413.16953
1870.39775,415.80083
1872.01351,415.80083
1873.62926,416.45865
1873.62926,415.80083
1875.24502,416.45865
1876.86078,415.80083
1878.47653,415.143
1880.09229,414.48518
1881.70804,414.48518
1883.3238,414.48518
1884.93955,413.82735
1886.55531,414.48518
1888.17107,414.48518
1889.78682,414.48518
1891.40258,414.48518
1893.01833,414.48518
1894.63409,419.08995
1894.63409,417.11648
1894.63409,416.45865
1894.63409,415.80083
1894.63409,415.143
1894.63409,418.43212
1894.63409,417.7743
1896.24984,419.08995
1896.24984,419.74777
1897.8656,421.06342
1897.8656,420.4056
1897.8656,421.72125
1899.48136,421.72125
1901.09711,421.72125
1902.71287,425.66819
1902.71287,421.72125
1902.71287,422.37907
1902.71287,423.0369
1902.71287,423.69472
1902.71287,424.35254
1902.71287,425.01037
1902.71287,426.32602
1904.32862,426.98384
1904.32862,426.32602
1905.94438,427.64167
1907.56013,428.29949
1909.17589,430.27296
1909.17589,428.95732
1909.17589,428.29949
1909.17589,429.61514
1910.79165,430.93079
1910.79165,430.27296
1912.4074,431.58861
1914.02316,432.24644
1914.02316,432.90426
1918.87043,423.69472
1918.87043,416.45865
1918.87043,430.93079
1918.87043,424.35254
1918.87043,426.98384
1918.87043,427.64167
1918.87043,428.29949
1918.87043,423.0369
1918.87043,430.27296
1918.87043,429.61514
1920.48618,428.95732
1920.48618,422.37907
1920.48618,421.72125
1920.48618,426.32602
1920.48618,417.11648
1920.48618,416.45865
1920.48618,425.01037
1920.48618,415.80083
1922.10194,417.7743
1922.10194,421.06342
1922.10194,425.66819
1922.10194,420.4056
1922.10194,415.80083
1922.10194,419.74777
1923.71769,415.80083
1923.71769,419.08995
1923.71769,418.43212
1925.33345,415.80083
1926.9492,415.80083
1926.9492,415.143
1928.56496,415.143
1928.56496,414.48518
1928.56496,413.82735
1928.56496,412.5117
1928.56496,413.16953
1930.18072,412.5117
1931.79647,412.5117
1933.41223,411.85388
1935.02798,411.85388
1936.64374,411.85388
1938.25949,412.5117
1938.25949,411.85388
1939.87525,412.5117
1939.87525,413.16953
1941.49101,413.16953
1943.10676,413.16953
1944.72252,413.82735
1946.33827,415.143
1946.33827,414.48518
1947.95403,415.80083
1949.56979,416.45865
1951.18554,417.11648
1952.8013,417.11648
1954.41705,416.45865
1956.03281,416.45865
1957.64856,415.143
1957.64856,414.48518
1957.64856,413.82735
1957.64856,412.5117
1957.64856,413.16953
1957.64856,415.80083
1959.26432,412.5117
1960.88008,412.5117
1962.49583,412.5117
1964.11159,412.5117
1965.72734,412.5117
1967.3431,412.5117
1968.95885,413.16953
1970.57461,412.5117
1972.19037,413.16953
1973.80612,413.82735
1975.42188,414.48518
1977.03763,415.143
1978.65339,415.143
1980.26914,414.48518
1980.26914,411.19606
1980.26914,411.85388
1980.26914,413.16953
1980.26914,413.82735
1980.26914,412.5117
1981.8849,411.19606
1981.8849,410.53823
1983.50066,410.53823
1985.11641,409.88041
1986.73217,409.88041
1988.34792,410.53823
1989.96368,411.19606
1991.57944,411.85388
1993.19519,412.5117
1994.81095,411.85388
1996.4267,412.5117
1998.04246,412.5117
1999.65821,412.5117
2001.27397,411.85388
2002.88973,411.19606
2004.50548,410.53823
2006.12124,409.88041
2007.73699,409.88041
2009.35275,413.82735
2009.35275,410.53823
2009.35275,411.19606
2009.35275,411.85388
2009.35275,412.5117
2009.35275,413.16953
2010.9685,414.48518
2010.9685,413.82735
2012.58426,414.48518
2014.20002,415.143
2014.20002,414.48518
2015.81577,415.143
2017.43153,415.143
2019.04728,414.48518
2020.66304,413.82735
2022.2788,414.48518
2023.89455,415.143
2025.51031,415.80083
2027.12606,415.80083
2028.74182,415.143
2028.74182,414.48518
2028.74182,413.82735
2028.74182,413.16953
2028.74182,412.5117
2028.74182,411.85388
2030.35757,411.19606
2031.97333,411.19606
2031.97333,410.53823
2033.58909,410.53823
2035.20484,410.53823
2036.8206,410.53823
2038.43635,409.88041
2038.43635,410.53823
2040.05211,409.88041
2040.05211,409.22258
2041.66786,409.22258
2043.28362,409.88041
2044.89938,410.53823
2046.51513,411.19606
2048.13089,410.53823
2049.74664,410.53823
2051.3624,410.53823
2052.97815,410.53823
2054.59391,410.53823
2056.20967,409.88041
2057.82542,410.53823
2059.44118,410.53823
2061.05693,409.88041
2062.67269,409.88041
2064.28845,407.24911
2064.28845,409.22258
2064.28845,407.90693
2064.28845,406.59128
2064.28845,405.93346
2064.28845,405.27564
2064.28845,408.56476
2065.9042,404.61781
2067.51996,403.95999
2069.13571,403.95999
2070.75147,403.95999
2070.75147,403.30216
2072.36722,403.30216
2073.98298,403.95999
2075.59874,404.61781
2077.21449,405.27564
2078.83025,405.93346
2080.446,406.59128
2082.06176,406.59128
2083.67751,406.59128
2085.29327,405.93346
2086.90903,405.27564
2088.52478,405.27564
2090.14054,405.27564
2091.75629,405.27564
2093.37205,405.27564
2094.98781,405.93346
2096.60356,406.59128
2096.60356,405.93346
2096.60356,407.24911
2098.21932,407.90693
2098.21932,407.24911
2098.21932,409.22258
2098.21932,408.56476
2098.21932,409.88041
2099.83507,410.53823
2099.83507,409.88041
2101.45083,410.53823
2103.06658,411.19606
2103.06658,410.53823
2104.68234,411.85388
2104.68234,412.5117
2106.2981,413.16953
2106.2981,412.5117
2107.91385,413.16953
2109.52961,413.82735
2109.52961,413.16953
2111.14536,414.48518
2111.14536,413.82735
2112.76112,415.143
2112.76112,414.48518
2114.37687,415.143
2115.99263,415.143
2117.60839,414.48518
2119.22414,415.143
2120.8399,415.143
2122.45565,414.48518
2124.07141,414.48518
2124.07141,415.143
2124.07141,413.16953
2124.07141,413.82735
2124.07141,412.5117
2125.68716,413.16953
2127.30292,413.82735
2128.91868,413.82735
2130.53443,413.82735
2132.15019,414.48518
2133.76594,414.48518
2135.3817,413.82735
2136.99746,413.82735
2138.61321,414.48518
2140.22897,413.82735
2141.84472,413.82735
2143.46048,413.16953
2143.46048,413.82735
2143.46048,411.85388
2143.46048,412.5117
2143.46048,410.53823
2143.46048,411.19606
2145.07623,409.88041
2145.07623,410.53823
2146.69199,409.88041
2146.69199,409.22258
2148.30775,408.56476
2149.9235,407.24911
2149.9235,408.56476
2149.9235,407.90693
2151.53926,407.24911
2153.15501,406.59128
2154.77077,406.59128
2156.38652,406.59128
2158.00228,407.24911
2159.61804,407.90693
2161.23379,408.56476
2162.84955,409.22258
2164.4653,409.22258
2166.08106,409.88041
2167.69682,409.88041
2169.31257,409.22258
2170.92833,408.56476
2172.54408,407.90693
2174.15984,407.90693
2175.77559,407.90693
2177.39135,407.90693
2179.00711,408.56476
2180.62286,409.22258
2182.23862,409.88041
2183.85437,410.53823
2185.47013,410.53823
2187.08588,410.53823
2188.70164,409.88041
2190.3174,409.22258
2191.93315,408.56476
2193.54891,408.56476
2195.16466,409.22258
2196.78042,409.22258
2196.78042,409.88041
2196.78042,410.53823
2198.39617,410.53823
2200.01193,411.19606
2201.62769,411.19606
2203.24344,410.53823
2204.8592,409.88041
2206.47495,409.22258
2208.09071,409.88041
2209.70647,409.22258
2211.32222,409.88041
2212.93798,409.88041
2214.55373,409.88041
2216.16949,410.53823
2217.78524,411.19606
2219.401,410.53823
2221.01676,410.53823
2222.63251,411.19606
2224.24827,410.53823
2225.86402,409.88041
2227.47978,409.22258
2229.09553,408.56476
2230.71129,407.90693
2230.71129,408.56476
2230.71129,409.22258
2230.71129,409.88041
2230.71129,410.53823
2232.32705,411.19606
2233.9428,411.85388
2235.55856,411.85388
2237.17431,411.85388
2237.17431,412.5117
2238.79007,412.5117
2238.79007,413.16953
2240.40583,413.16953
2240.40583,413.82735
2242.02158,413.82735
2243.63734,413.82735
2245.25309,413.16953
2246.86885,412.5117
2248.4846,412.5117
2250.10036,413.16953
2251.71612,413.82735
2253.33187,414.48518
2254.94763,413.82735
2256.56338,413.82735
2256.56338,413.16953
2256.56338,412.5117
2256.56338,411.85388
2256.56338,411.19606
2256.56338,410.53823
2256.56338,409.88041
2256.56338,409.22258
2258.17914,408.56476
2259.79489,407.90693
2261.41065,407.24911
2263.02641,407.24911
2263.02641,405.93346
2264.64216,407.24911
2264.64216,406.59128
2264.64216,405.27564
2266.25792,404.61781
2266.25792,403.95999
2284.03123,407.90693
2285.64699,407.24911
2285.64699,408.56476
2285.64699,409.22258
2287.26274,409.22258
2288.8785,413.16953
2288.8785,412.5117
2288.8785,411.85388
2288.8785,411.19606
2288.8785,410.53823
2288.8785,409.88041
2288.8785,413.82735
2290.49425,413.82735
2292.11001,413.82735
2293.72577,413.82735
2295.34152,413.82735
2296.95728,414.48518
2296.95728,415.80083
2296.95728,413.82735
2298.57303,415.143
2298.57303,416.45865
2298.57303,417.7743
2300.18879,417.11648
2300.18879,418.43212
2301.80454,419.08995
2301.80454,419.74777
2301.80454,420.4056
2303.4203,421.06342
2303.4203,421.72125
2305.03606,422.37907
2305.03606,423.0369
2305.03606,423.69472
2305.03606,424.35254
2305.03606,426.32602
2306.65181,425.66819
2306.65181,426.98384
2306.65181,427.64167
2306.65181,425.01037
2306.65181,429.61514
2308.26757,428.95732
2308.26757,430.27296
2308.26757,430.93079
2308.26757,428.29949
2308.26757,432.90426
2309.88332,432.24644
2309.88332,433.56209
2309.88332,431.58861
2309.88332,434.21991
2311.49908,438.16686
2311.49908,436.19338
2311.49908,436.85121
2311.49908,437.50903
2311.49908,435.53556
2311.49908,438.82468
2311.49908,439.48251
2311.49908,434.87774
2313.11484,440.79816
2313.11484,441.45598
2313.11484,442.1138
2313.11484,442.77163
2313.11484,443.42945
2313.11484,444.08728
2313.11484,440.14033
2313.11484,445.40293
2313.11484,446.06075
2313.11484,446.71858
2313.11484,447.3764
2313.11484,448.03422
2313.11484,448.69205
2313.11484,449.34987
2313.11484,444.7451
2314.73059,449.34987
2316.34635,449.34987
2317.9621,449.34987
2319.57786,450.0077
2319.57786,450.66552
2319.57786,449.34987
2319.57786,451.98117
2319.57786,452.639
2319.57786,451.32335
2321.19361,453.29682
2322.80937,453.29682
2324.42513,453.29682
2326.04088,452.639
2327.65664,453.29682
2327.65664,452.639
2329.27239,451.98117
2329.27239,452.639
2330.88815,451.32335
2330.88815,451.98117
2332.5039,451.32335
2332.5039,446.06075
2332.5039,446.71858
2334.11966,449.34987
2334.11966,446.06075
2334.11966,450.66552
2334.11966,447.3764
2334.11966,450.0077
2335.73542,448.03422
2335.73542,448.69205
2335.73542,445.40293
2337.35117,444.7451
2337.35117,439.48251
2337.35117,440.14033
2338.96693,444.7451
2338.96693,440.79816
2338.96693,443.42945
2338.96693,444.08728
2338.96693,438.82468
2340.58268,442.1138
2340.58268,442.77163
2340.58268,443.42945
2340.58268,441.45598
2340.58268,438.16686
2340.58268,436.19338
2340.58268,436.85121
2340.58268,433.56209
2340.58268,432.90426
2340.58268,434.87774
2340.58268,434.21991
2340.58268,432.24644
2342.19844,435.53556
2342.19844,437.50903
2342.19844,431.58861
2342.19844,430.93079
2342.19844,429.61514
2342.19844,427.64167
2342.19844,428.95732
2342.19844,426.98384
2343.81419,430.27296
2343.81419,428.29949
2343.81419,426.32602
2343.81419,425.66819
2343.81419,423.69472
2343.81419,424.35254
2345.42995,425.01037
2345.42995,423.0369
2345.42995,422.37907
2347.04571,421.72125
2347.04571,421.06342
2348.66146,420.4056
2348.66146,419.74777
2348.66146,419.08995
2348.66146,417.11648
2348.66146,417.7743
2350.27722,418.43212
2350.27722,416.45865
2350.27722,415.80083
2350.27722,415.143
2351.89297,414.48518
2353.50873,413.82735
2353.50873,413.16953
2353.50873,412.5117
2353.50873,411.19606
2355.12449,411.85388
2355.12449,410.53823
2355.12449,409.88041
2355.12449,409.22258
2356.74024,409.22258
2358.356,409.22258
2359.97175,409.22258
2361.58751,409.22258
2363.20326,409.22258
2363.20326,407.90693
2363.20326,407.24911
2363.20326,406.59128
2363.20326,405.93346
2363.20326,405.27564
2363.20326,404.61781
2363.20326,408.56476
2364.81902,404.61781
2366.43478,404.61781
2366.43478,403.95999
2368.05053,403.95999
2369.66629,404.61781
2371.28204,405.27564
2372.8978,405.27564
2374.51355,404.61781
2376.12931,403.95999
2377.74507,403.30216
2379.36082,402.64434
2380.97658,402.64434
2382.59233,402.64434
2384.20809,403.30216
2384.20809,404.61781
2384.20809,403.95999
2384.20809,405.93346
2384.20809,406.59128
2384.20809,407.24911
2384.20809,405.27564
2384.20809,408.56476
2384.20809,407.90693
2385.82385,409.88041
2385.82385,410.53823
2385.82385,409.22258
2385.82385,411.85388
2385.82385,412.5117
2387.4396,413.16953
2387.4396,413.82735
2387.4396,414.48518
2387.4396,415.143
2387.4396,411.19606
2389.05536,415.80083
2389.05536,416.45865
2389.05536,417.11648
2390.67111,417.7743
2390.67111,418.43212
2392.28687,418.43212
2393.90262,418.43212
2395.51838,420.4056
2395.51838,419.74777
2395.51838,419.08995
2395.51838,418.43212
2395.51838,421.06342
2395.51838,421.72125
2397.13414,421.72125
2397.13414,422.37907
2398.74989,423.0369
2400.36565,423.0369
2401.9814,425.66819
2401.9814,423.0369
2401.9814,423.69472
2401.9814,425.01037
2401.9814,424.35254
2414.90745,417.7743
2416.5232,418.43212
2416.5232,416.45865
2416.5232,417.11648
2418.13896,413.82735
2418.13896,413.16953
2418.13896,412.5117
2418.13896,411.85388
2418.13896,411.19606
2418.13896,410.53823
2418.13896,409.88041
2418.13896,414.48518
2418.13896,415.143
2418.13896,415.80083
2418.13896,419.08995
2419.75472,407.90693
2419.75472,409.88041
2419.75472,409.22258
2421.37047,408.56476
2444.03859,405.87093
2455.30134,415.143
2455.30134,414.48518
2455.30134,415.80083
2456.9171,413.82735
2458.53286,413.16953
2458.53286,412.5117
2458.53286,411.85388
2458.53286,413.82735
2460.14861,411.19606
2461.76437,410.53823
2461.76437,409.88041
2461.76437,409.22258
2461.76437,408.56476
2463.38012,407.90693
2464.99588,407.90693
2466.61163,408.56476
2468.22739,409.22258
2469.84315,409.88041
2471.4589,409.22258
2473.07466,408.56476
2474.69041,408.56476
2476.30617,408.56476
2476.30617,409.22258
2476.30617,409.88041
2476.30617,410.53823
2476.30617,411.19606
2476.30617,412.5117
2476.30617,413.16953
2476.30617,413.82735
2476.30617,411.85388
2477.92192,414.48518
2477.92192,415.143
2479.53768,415.143
2479.53768,415.80083
2481.15344,415.80083
2481.15344,417.11648
2481.15344,417.7743
2481.15344,416.45865
2482.76919,417.7743
2484.38495,418.43212
2484.38495,419.08995
2484.38495,419.74777
2484.38495,420.4056
2484.38495,417.7743
2486.0007,421.72125
2486.0007,421.06342
2487.61646,421.72125
2489.23221,422.37907
2489.23221,423.0369
2489.23221,421.72125
2490.84797,423.69472
2492.46373,424.35254
2492.46373,425.01037
2510.23704,411.85388
2511.8528,412.5117
2511.8528,411.19606
2513.46855,413.16953
2515.08431,413.82735
2516.70006,416.45865
2516.70006,414.48518
2516.70006,415.143
2516.70006,417.11648
2516.70006,413.82735
2516.70006,415.80083
2518.31582,417.7743
2519.93157,417.7743
2521.54733,420.4056
2521.54733,423.0369
2521.54733,422.37907
2521.54733,421.72125
2521.54733,417.7743
2521.54733,418.43212
2521.54733,419.08995
2521.54733,419.74777
2521.54733,421.06342
2523.16309,423.69472
2523.16309,423.0369
2524.77884,424.35254
2526.3946,424.35254
2528.01035,425.66819
2528.01035,424.35254
2529.62611,425.01037
2529.62611,424.35254
2531.24187,422.37907
2531.24187,421.72125
2531.24187,423.0369
2531.24187,424.35254
2531.24187,423.69472
2532.85762,421.72125
2532.85762,421.06342
2532.85762,424.35254
2534.47338,423.69472
2534.47338,421.72125
2534.47338,422.37907
2534.47338,423.0369
2534.47338,420.4056
2534.47338,419.74777
2534.47338,421.06342
2536.08913,420.4056
2536.08913,421.06342
2536.08913,419.74777
2536.08913,418.43212
2536.08913,419.08995
2536.08913,421.72125
2537.70489,417.7743
2537.70489,420.4056
2539.32064,416.45865
2539.32064,417.11648
2539.32064,420.4056
2539.32064,417.7743
2540.9364,420.4056
2540.9364,418.43212
2540.9364,417.7743
2540.9364,419.08995
2540.9364,419.74777
2540.9364,416.45865
2540.9364,415.80083
2540.9364,417.11648
2542.55216,415.80083
2542.55216,416.45865
2544.16791,415.80083
2544.16791,415.143
2545.78367,415.143
2545.78367,414.48518
2545.78367,415.80083
2547.39942,413.16953
2547.39942,415.80083
2547.39942,413.82735
2549.01518,416.45865
2550.63093,417.11648
2552.24669,417.7743
2553.86245,418.43212
2555.4782,419.08995
2555.4782,418.43212
2557.09396,418.43212
2558.70971,418.43212
2560.32547,419.08995
2561.94122,419.08995
2563.55698,419.08995
2565.17274,417.7743
2565.17274,417.11648
2565.17274,416.45865
2565.17274,415.80083
2565.17274,415.143
2565.17274,414.48518
2565.17274,413.82735
2565.17274,418.43212
2566.78849,413.82735
2568.40425,413.16953
2568.40425,413.82735
2570.02,413.16953
2571.63576,413.16953
2573.25152,413.16953
2573.25152,412.5117
2574.86727,411.85388
2574.86727,411.19606
2574.86727,410.53823
2574.86727,409.88041
2574.86727,409.22258
2574.86727,408.56476
2574.86727,407.90693
2574.86727,407.24911
2574.86727,406.59128
2574.86727,405.93346
2574.86727,412.5117
2576.48303,405.93346
2578.09878,405.27564
2579.71454,403.30216
2579.71454,405.27564
2581.33029,402.64434
2581.33029,405.27564
2581.33029,403.95999
2581.33029,404.61781
2581.33029,401.98651
2581.33029,401.32869
2582.94605,401.98651
2582.94605,401.32869
2582.94605,402.64434
2584.56181,403.30216
2584.56181,403.95999
2584.56181,404.61781
2586.17756,404.61781
2587.79332,405.27564
2589.40907,405.93346
2589.40907,406.59128
2589.40907,407.24911
2589.40907,407.90693
2589.40907,408.56476
2589.40907,409.22258
2589.40907,409.88041
2589.40907,410.53823
2589.40907,411.19606
2589.40907,411.85388
2589.40907,412.5117
2591.02483,412.5117
2592.64058,412.5117
2592.64058,413.16953
2592.64058,413.82735
2592.64058,414.48518
2592.64058,415.143
2592.64058,415.80083
2594.25634,416.45865
2594.25634,417.11648
2595.8721,417.11648
2597.48785,418.43212
2597.48785,417.7743
2597.48785,417.11648
2597.48785,419.08995
2599.10361,419.08995
2600.71936,419.08995
2602.33512,419.08995
2603.95088,419.08995
2605.56663,419.08995
2605.56663,419.74777
2607.18239,419.74777
2607.18239,420.4056
2607.18239,421.06342
2608.79814,421.06342
2608.79814,421.72125
2610.4139,421.72125
2610.4139,425.01037
2610.4139,423.0369
2610.4139,423.69472
2610.4139,424.35254
2610.4139,422.37907
2610.4139,425.66819
2612.02965,425.66819
2613.64541,425.66819
2613.64541,426.32602
2615.26117,426.32602
2616.87692,425.66819
2618.49268,425.01037
2620.10843,424.35254
2621.72419,425.01037
2623.33994,425.66819
2624.9557,426.32602
2626.57146,426.98384
2628.18721,423.0369
2628.18721,426.32602
2628.18721,425.66819
2628.18721,425.01037
2628.18721,423.69472
2628.18721,424.35254
2629.80297,423.0369
2629.80297,422.37907
2631.41872,422.37907
2633.03448,422.37907
2633.03448,421.72125
2634.65023,421.72125
2636.26599,421.72125
2637.88175,421.72125
2639.4975,421.06342
2639.4975,419.08995
2639.4975,420.4056
2639.4975,419.74777
2641.11326,419.08995
2642.72901,418.43212
2642.72901,419.08995
2644.34477,419.08995
2645.96053,419.74777
2647.57628,420.4056
2649.19204,421.06342
2650.80779,421.72125
2652.42355,422.37907
2654.0393,422.37907
2655.65506,422.37907
2657.27082,423.0369
2657.27082,422.37907
2658.88657,423.0369
2658.88657,423.69472
2660.50233,423.69472
2662.11808,423.69472
2663.73384,423.0369
2665.34959,422.37907
2666.96535,423.0369
2668.58111,423.69472
2670.19686,424.35254
2671.81262,423.69472
2673.42837,423.69472
2675.04413,423.0369
2676.65989,422.37907
2678.27564,421.72125
2679.8914,421.06342
2681.50715,423.69472
2681.50715,421.06342
2681.50715,421.72125
2681.50715,422.37907
2681.50715,423.0369
2683.12291,425.01037
2683.12291,423.69472
2683.12291,424.35254
2684.73866,425.66819
2686.35442,426.98384
2686.35442,426.32602
2687.97018,427.64167
2687.97018,426.98384
2689.58593,427.64167
2689.58593,428.29949
2691.20169,428.95732
2691.20169,428.29949
2692.81744,429.61514
2694.4332,429.61514
2696.04895,429.61514
2696.04895,430.27296
2697.66471,432.24644
2697.66471,430.27296
2697.66471,431.58861
2697.66471,430.93079
2699.28047,430.93079
2699.28047,431.58861
2699.28047,430.27296
2699.28047,429.61514
2700.89622,429.61514
2702.51198,428.95732
2704.12773,428.95732
2704.12773,428.29949
2704.12773,427.64167
2704.12773,426.98384
2704.12773,426.32602
2704.12773,425.66819
2704.12773,425.01037
2704.12773,424.35254
2704.12773,423.69472
2704.12773,423.0369
2705.74349,423.0369
2705.74349,422.37907
2705.74349,421.72125
2707.35924,421.72125
2708.975,421.72125
2710.59076,421.72125
2710.59076,421.06342
2710.59076,420.4056
2710.59076,419.74777
2710.59076,419.08995
2712.20651,419.08995
2712.20651,418.43212
2712.20651,417.7743
2713.82227,417.7743
2715.43802,417.7743
2715.43802,417.11648
2717.05378,417.11648
2717.05378,416.45865
2718.66954,416.45865
2720.28529,417.11648
2721.90105,417.7743
2723.5168,418.43212
2725.13256,417.7743
2726.74831,417.11648
2728.36407,417.11648
2729.97983,417.7743
2731.59558,418.43212
2731.59558,415.143
2733.21134,415.143
2733.21134,419.08995
2734.82709,415.143
2734.82709,419.08995
2736.44285,417.7743
2736.44285,418.43212
2738.0586,417.11648
2739.67436,415.143
2739.67436,414.48518
2739.67436,415.80083
2739.67436,413.82735
2739.67436,416.45865
2741.29012,412.5117
2741.29012,414.48518
2741.29012,413.16953
2750.98465,424.35254
2750.98465,423.69472
2750.98465,423.0369
2752.60041,423.0369
2752.60041,422.37907
2754.21616,422.37907
2755.83192,422.37907
2757.44767,422.37907
2757.44767,421.72125
2759.06343,421.72125
2759.06343,421.06342
2760.67919,421.06342
2760.67919,420.4056
2760.67919,419.74777
2760.67919,419.08995
2760.67919,418.43212
2760.67919,417.7743
2760.67919,417.11648
2760.67919,416.45865
2760.67919,415.80083
2762.29494,415.80083
2762.29494,414.48518
2763.9107,413.16953
2763.9107,415.143
2763.9107,415.80083
2763.9107,413.82735
2763.9107,412.5117
2765.52645,415.80083
2765.52645,412.5117
2767.14221,412.5117
2768.75796,412.5117
2770.37372,412.5117
2770.37372,411.85388
2770.37372,411.19606
2770.37372,410.53823
2770.37372,409.88041
2770.37372,409.22258
2770.37372,408.56476
2770.37372,407.90693
2771.98948,407.24911
2773.60523,406.59128
2775.22099,406.59128
2776.83674,406.59128
2776.83674,405.93346
2778.4525,406.59128
2778.4525,407.24911
2778.4525,404.61781
2778.4525,405.27564
2780.06825,405.27564
2780.06825,405.93346
2780.06825,407.24911
2780.06825,404.61781
2781.68401,407.24911
2783.29977,407.90693
2784.91552,409.22258
2784.91552,409.88041
2784.91552,410.53823
2784.91552,408.56476
2786.53128,410.53823
2788.14703,411.19606
2788.14703,410.53823
2789.76279,411.85388
2789.76279,411.19606
2791.37855,412.5117
2791.37855,411.85388
2792.9943,412.5117
2794.61006,412.5117
2796.22581,413.16953
2797.84157,413.16953
2799.45732,413.16953
2799.45732,413.82735
2801.07308,415.80083
2801.07308,415.143
2801.07308,414.48518
2801.07308,413.82735
2802.68884,415.80083
2802.68884,416.45865
2802.68884,417.11648
2802.68884,417.7743
2802.68884,418.43212
2802.68884,415.143
2802.68884,414.48518
2802.68884,413.82735
2804.30459,415.143
2804.30459,416.45865
2804.30459,417.11648
2804.30459,417.7743
2804.30459,419.08995
2804.30459,418.43212
2804.30459,415.80083
2805.92035,418.43212
2805.92035,419.08995
2805.92035,417.7743
2807.5361,419.08995
2807.5361,418.43212
2807.5361,417.7743
2809.15186,419.08995
2809.15186,418.43212
2809.15186,417.7743
2810.76761,417.7743
2810.76761,419.08995
2810.76761,420.4056
2810.76761,421.06342
2810.76761,421.72125
2810.76761,419.74777
2810.76761,418.43212
2812.38337,423.0369
2812.38337,423.69472
2812.38337,421.72125
2812.38337,419.74777
2812.38337,419.08995
2812.38337,422.37907
2812.38337,421.06342
2812.38337,420.4056
2813.99913,421.06342
2813.99913,421.72125
2813.99913,422.37907
2813.99913,423.0369
2813.99913,423.69472
2813.99913,424.35254
2815.61488,423.0369
2815.61488,423.69472
2817.23064,422.37907
2817.23064,423.0369
2818.84639,423.69472
2818.84639,423.0369
2820.46215,423.69472
2820.46215,423.0369
2822.07791,423.0369
2822.07791,421.06342
2822.07791,420.4056
2822.07791,421.72125
2822.07791,422.37907
2822.07791,423.69472
2823.69366,417.7743
2823.69366,418.43212
2823.69366,419.08995
2823.69366,419.74777
2823.69366,420.4056
2823.69366,421.06342
2823.69366,421.72125
2823.69366,422.37907
2823.69366,423.0369
2823.69366,423.69472
2823.69366,417.11648
2823.69366,420.4056
2825.30942,420.4056
2825.30942,417.7743
2825.30942,417.11648
2825.30942,416.45865
2826.92517,417.11648
2826.92517,416.45865
2826.92517,415.143
2826.92517,419.08995
2826.92517,418.43212
2826.92517,414.48518
2826.92517,415.80083
2826.92517,420.4056
2828.54093,414.48518
2828.54093,415.143
2828.54093,417.11648
2828.54093,413.82735
2828.54093,420.4056
2828.54093,419.74777
2830.15668,413.82735
2830.15668,417.11648
2830.15668,414.48518
2831.77244,414.48518
2831.77244,417.11648
2831.77244,413.82735
2833.3882,414.48518
2833.3882,413.82735
2833.3882,413.16953
2833.3882,416.45865
2833.3882,415.80083
2835.00395,412.5117
2835.00395,415.143
2835.00395,411.85388
2835.00395,411.19606
2835.00395,414.48518
2835.00395,413.82735
2835.00395,413.16953
2836.61971,409.22258
2836.61971,409.88041
2836.61971,410.53823
2836.61971,413.82735
2836.61971,411.19606
2836.61971,413.16953
2836.61971,412.5117
2836.61971,411.85388
2838.23546,411.19606
2838.23546,411.85388
2838.23546,410.53823
2838.23546,409.88041
2838.23546,409.22258
2838.23546,408.56476
2839.85122,408.56476
2839.85122,409.22258
2841.46697,408.56476
2841.46697,409.22258
2843.08273,408.56476
2843.08273,409.22258
2844.69849,409.88041
2844.69849,408.56476
2844.69849,409.22258
2846.31424,410.53823
2846.31424,409.88041
2846.31424,408.56476
2846.31424,409.22258
2847.93,409.88041
2847.93,409.22258
2847.93,411.19606
2847.93,410.53823
2849.54575,409.88041
2849.54575,410.53823
2849.54575,411.19606
2849.54575,411.85388
2851.16151,411.85388
2851.16151,411.19606
2851.16151,410.53823
2852.77726,411.19606
2852.77726,411.85388
2852.77726,412.5117
2852.77726,413.16953
2852.77726,413.82735
2854.39302,414.48518
2854.39302,411.85388
2854.39302,415.143
2854.39302,415.80083
2854.39302,412.5117
2854.39302,413.16953
2854.39302,413.82735
2856.00878,413.16953
2856.00878,414.48518
2856.00878,415.143
2856.00878,415.80083
2856.00878,416.45865
2856.00878,413.82735
2857.62453,416.45865
2857.62453,415.80083
2859.24029,416.45865
2859.24029,415.80083
2860.85604,416.45865
2860.85604,415.80083
2862.4718,416.45865
2862.4718,415.80083
2862.4718,415.143
2862.4718,414.48518
2864.08756,415.80083
2864.08756,413.82735
2864.08756,414.48518
2864.08756,413.16953
2864.08756,413.82735
2864.08756,415.143
2864.08756,416.45865
2865.70331,413.16953
2865.70331,413.82735
2865.70331,412.5117
2867.31907,411.85388
2867.31907,413.16953
2867.31907,412.5117
2868.93482,412.5117
2868.93482,411.85388
2870.55058,411.19606
2870.55058,411.85388
2872.16633,411.85388
2872.16633,411.19606
2872.16633,410.53823
2873.78209,411.85388
2873.78209,409.88041
2875.39785,409.22258
2875.39785,409.88041
2875.39785,411.85388
2877.0136,410.53823
2877.0136,411.19606
2877.0136,409.88041
2877.0136,409.22258
2878.62936,409.22258
2878.62936,408.56476
2878.62936,409.88041
2880.24511,408.56476
2880.24511,409.22258
2881.86087,408.56476
2881.86087,409.22258
2883.47662,409.22258
2883.47662,409.88041
2885.09238,409.88041
2885.09238,410.53823
2886.70814,410.53823
2886.70814,409.88041
2888.32389,410.53823
2888.32389,409.88041
2889.93965,409.88041
2889.93965,410.53823
2891.5554,409.88041
2891.5554,409.22258
2893.17116,409.22258
2893.17116,409.88041
2894.78692,408.56476
2894.78692,409.22258
2896.40267,407.24911
2896.40267,408.56476
2896.40267,407.90693
2898.01843,406.59128
2898.01843,403.95999
2898.01843,407.90693
2898.01843,404.61781
2899.63418,403.30216
2899.63418,407.24911
2899.63418,405.93346
2899.63418,405.27564
2899.63418,403.95999
2901.24994,405.93346
2901.24994,404.61781
2901.24994,405.27564
2901.24994,407.90693
2901.24994,408.56476
2902.86569,409.22258
2902.86569,405.93346
2902.86569,409.88041
2904.48145,410.53823
2904.48145,409.88041
2904.48145,406.59128
2904.48145,411.19606
2906.09721,411.85388
2906.09721,407.24911
2906.09721,407.90693
2906.09721,408.56476
2906.09721,409.22258
2906.09721,409.88041
2906.09721,410.53823
2906.09721,411.19606
2907.71296,411.19606
2907.71296,412.5117
2907.71296,411.85388
2909.32872,412.5117
2909.32872,411.85388
2909.32872,413.16953
2910.94447,413.82735
2912.56023,413.82735
2912.56023,414.48518
2914.17598,415.143
2914.17598,414.48518
2915.79174,415.143
2917.4075,415.143
2919.02325,415.143
2920.63901,415.143
2922.25476,415.143
2923.87052,416.45865
2923.87052,415.80083
2923.87052,417.11648
2925.48627,420.4056
2925.48627,417.11648
2925.48627,417.7743
2925.48627,418.43212
2925.48627,419.08995
2925.48627,419.74777
2927.10203,421.06342
2928.71779,421.06342
2930.33354,421.06342
2931.9493,421.06342
2933.56505,420.4056
2935.18081,419.74777
2936.79657,419.08995
2938.41232,419.74777
2940.02808,419.74777
2941.64383,419.74777
2941.64383,419.08995
2943.25959,419.08995
2943.25959,415.80083
2943.25959,416.45865
2943.25959,417.11648
2943.25959,417.7743
2943.25959,418.43212
2944.87534,415.80083
2946.4911,415.143
2946.4911,414.48518
2948.10686,414.48518
2948.10686,413.82735
2949.72261,413.82735
2949.72261,413.16953
2951.33837,413.16953
2952.95412,413.16953
2954.56988,413.82735
2956.18563,414.48518
2957.80139,415.143
2959.41715,414.48518
2961.0329,413.82735
2962.64866,413.16953
2964.26441,415.143
2964.26441,413.82735
2964.26441,414.48518
2964.26441,415.80083
2964.26441,413.16953
2965.88017,417.11648
2965.88017,416.45865
2967.49593,417.11648
2969.11168,417.11648
2970.72744,416.45865
2972.34319,415.80083
2973.95895,415.143
2975.5747,415.80083
2977.19046,416.45865
2978.80622,417.11648
2980.42197,417.11648
2982.03773,415.80083
2982.03773,416.45865
2982.03773,417.11648
2982.03773,413.82735
2982.03773,414.48518
2982.03773,415.143
2983.65348,413.82735
2985.26924,413.16953
2985.26924,413.82735
2986.88499,413.16953
2988.50075,413.16953
2988.50075,412.5117
2990.11651,412.5117
2991.73226,411.85388
2993.34802,411.85388
2994.96377,411.85388
2996.57953,412.5117
2998.19528,413.16953
2999.81104,413.82735
3001.4268,414.48518
3003.04255,415.143
3004.65831,415.143
3006.27406,415.143
3007.88982,414.48518
3007.88982,413.82735
3007.88982,415.143
3009.50558,413.16953
3009.50558,415.143
3009.50558,411.85388
3009.50558,412.5117
3011.12133,414.48518
3011.12133,411.19606
3012.73709,411.19606
3012.73709,413.82735
3014.35284,413.82735
3014.35284,411.19606
3015.9686,413.16953
3015.9686,410.53823
3017.58435,412.5117
3017.58435,410.53823
3019.20011,411.85388
3019.20011,410.53823
3020.81587,410.53823
3020.81587,411.19606
3022.43162,409.88041
3022.43162,411.19606
3022.43162,410.53823
3024.04738,411.85388
3024.04738,409.88041
3024.04738,412.5117
3025.66313,413.82735
3025.66313,412.5117
3025.66313,413.16953
3027.27889,420.4056
3027.27889,413.82735
3027.27889,421.06342
3027.27889,421.72125
3028.89464,414.48518
3028.89464,415.80083
3028.89464,417.11648
3028.89464,422.37907
3028.89464,421.72125
3028.89464,416.45865
3028.89464,419.74777
3028.89464,415.143
3030.5104,422.37907
3030.5104,419.08995
3030.5104,417.7743
3032.12616,418.43212
3032.12616,423.0369
3032.12616,422.37907
3032.12616,423.69472
3032.12616,424.35254
3033.74191,425.01037
3035.35767,425.01037
3036.97342,425.66819
3038.58918,426.98384
3038.58918,426.32602
3054.74674,415.143
3054.74674,414.48518
3056.36249,415.80083
3056.36249,416.45865
3057.97825,416.45865
3059.594,417.11648
3061.20976,417.11648
3062.82552,419.74777
3062.82552,417.11648
3062.82552,417.7743
3062.82552,419.08995
3062.82552,418.43212
3064.44127,420.4056
3066.05703,419.74777
3067.67278,419.08995
3069.28854,418.43212
3070.90429,417.7743
3072.52005,417.7743
3074.13581,417.7743
3075.75156,418.43212
3077.36732,419.08995
3078.98307,418.43212
3080.59883,417.7743
3080.59883,418.43212
3082.21459,418.43212
3083.83034,419.08995
3083.83034,418.43212
3085.4461,419.08995
3085.4461,419.74777
3087.06185,420.4056
3087.06185,419.74777
3088.67761,421.06342
3090.29336,421.72125
3090.29336,422.37907
3090.29336,423.0369
3090.29336,423.69472
3090.29336,424.35254
3090.29336,425.01037
3090.29336,421.06342
3091.90912,425.66819
3093.52488,425.66819
3095.14063,425.01037
3096.75639,425.01037
3098.37214,425.66819
3099.9879,426.32602
3101.60365,425.66819
3103.21941,426.32602
3104.83517,425.66819
3106.45092,425.66819
3108.06668,425.66819
3109.68243,425.66819
3111.29819,425.01037
3112.91395,424.35254
3114.5297,425.01037
3116.14546,425.66819
3117.76121,426.32602
3119.37697,426.32602
3120.99272,426.32602
3122.60848,426.32602
3124.22424,422.37907
3124.22424,425.01037
3124.22424,424.35254
3124.22424,423.69472
3124.22424,423.0369
3124.22424,425.66819
3125.83999,421.72125
3125.83999,422.37907
3127.45575,421.72125
3129.0715,421.72125
3130.68726,421.06342
3132.30301,417.11648
3132.30301,419.08995
3132.30301,419.74777
3132.30301,420.4056
3132.30301,421.06342
3132.30301,418.43212
3132.30301,417.7743
3133.91877,416.45865
3133.91877,417.11648
3135.53453,416.45865
3137.15028,416.45865
3138.76604,415.80083
3140.38179,415.80083
3141.99755,416.45865
3143.6133,416.45865
3145.22906,418.43212
3145.22906,417.11648
3145.22906,416.45865
3145.22906,417.7743
3146.84482,419.74777
3146.84482,419.08995
3148.46057,419.74777
3150.07633,419.08995
3151.69208,419.74777
3153.30784,419.74777
3154.9236,419.08995
3156.53935,418.43212
3158.15511,417.7743
3159.77086,421.06342
3159.77086,419.08995
3159.77086,418.43212
3159.77086,422.37907
3159.77086,419.74777
3159.77086,420.4056
3159.77086,423.0369
3159.77086,421.72125
3161.38662,423.0369
3163.00237,423.0369
3164.61813,423.0369
3166.23389,423.0369
3167.84964,423.69472
3167.84964,424.35254
3167.84964,423.0369
3169.4654,425.01037
3169.4654,425.66819
3169.4654,424.35254
3171.08115,426.32602
3171.08115,425.66819
3172.69691,426.98384
3172.69691,428.29949
3172.69691,428.95732
3172.69691,429.61514
3172.69691,430.27296
3172.69691,430.93079
3172.69691,426.32602
3172.69691,427.64167
3174.31266,430.93079
3175.92842,430.93079
3175.92842,431.58861
3177.54418,430.93079
3179.15993,430.27296
3180.77569,430.93079
3182.39144,431.58861
3184.0072,431.58861
3185.62296,429.61514
3185.62296,430.27296
3185.62296,430.93079
3185.62296,427.64167
3185.62296,428.29949
3185.62296,428.95732
3187.23871,427.64167
3188.85447,426.98384
3190.47022,426.32602
3192.08598,424.35254
3192.08598,425.01037
3192.08598,426.32602
3192.08598,425.66819
3193.70173,425.01037
3193.70173,425.66819
3193.70173,424.35254
3195.31749,425.01037
3195.31749,425.66819
3195.31749,424.35254
3195.31749,426.32602
3196.93325,426.98384
3196.93325,425.66819
3196.93325,426.32602
3198.549,428.95732
3198.549,429.61514
3198.549,430.27296
3198.549,426.98384
3198.549,427.64167
3198.549,428.29949
3200.16476,430.93079
3200.16476,428.95732
3200.16476,429.61514
3200.16476,428.29949
3200.16476,427.64167
3201.78051,429.61514
3201.78051,430.93079
3201.78051,430.27296
3203.39627,431.58861
3203.39627,430.93079
3205.01202,430.93079
3205.01202,431.58861
3206.62778,430.93079
3206.62778,431.58861
3208.24354,431.58861
3208.24354,432.24644
3209.85929,432.24644
3209.85929,431.58861
3211.47505,431.58861
3211.47505,430.93079
3213.0908,430.27296
3213.0908,430.93079
3214.70656,429.61514
3214.70656,430.27296
3216.32231,430.27296
3216.32231,429.61514
3217.93807,429.61514
3217.93807,430.27296
3219.55383,429.61514
3219.55383,430.27296
3221.16958,430.93079
3221.16958,430.27296
3222.78534,430.93079
3222.78534,431.58861
3224.40109,430.27296
3224.40109,431.58861
3224.40109,430.93079
3226.01685,430.93079
3226.01685,429.61514
3226.01685,430.27296
3226.01685,431.58861
3227.63261,429.61514
3227.63261,430.93079
3227.63261,430.27296
3229.24836,430.27296
3229.24836,428.95732
3229.24836,429.61514
3229.24836,427.64167
3229.24836,426.98384
3229.24836,428.29949
3230.86412,426.32602
3230.86412,430.27296
3230.86412,428.95732
3230.86412,429.61514
3232.47987,428.95732
3232.47987,428.29949
3232.47987,426.32602
3232.47987,424.35254
3232.47987,425.01037
3232.47987,425.66819
3234.09563,424.35254
3234.09563,423.69472
3234.09563,427.64167
3234.09563,428.29949
3235.71138,426.98384
3235.71138,423.69472
3235.71138,426.32602
3235.71138,427.64167
3237.32714,425.01037
3237.32714,423.69472
3237.32714,426.32602
3237.32714,424.35254
3237.32714,423.0369
3237.32714,425.66819
3238.9429,423.0369
3240.55865,423.69472
3242.17441,424.35254
3243.79016,423.69472
3245.40592,423.0369
3247.02167,423.0369
3247.02167,423.69472
3248.63743,423.69472
3250.25319,423.69472
3251.86894,424.35254
3251.86894,425.01037
3253.4847,425.01037
3255.10045,425.66819
3256.71621,426.98384
3256.71621,426.32602
3256.71621,427.64167
3258.33197,428.29949
3259.94772,428.95732
3261.56348,428.95732
3263.17923,428.95732
3264.79499,428.95732
3266.41074,428.29949
3268.0265,427.64167
3268.0265,426.98384
3268.0265,426.32602
3269.64226,426.32602
3269.64226,425.01037
3269.64226,424.35254
3269.64226,423.69472
3269.64226,425.66819
3269.64226,423.0369
3271.25801,423.0369
3272.87377,423.69472
3274.48952,424.35254
3276.10528,423.69472
3277.72103,423.0369
3277.72103,423.69472
3279.33679,423.69472
3280.95255,424.35254
3280.95255,423.69472
3282.5683,425.01037
3282.5683,425.66819
3282.5683,426.32602
3282.5683,426.98384
3282.5683,427.64167
3282.5683,428.29949
3282.5683,428.95732
3282.5683,429.61514
3282.5683,430.27296
3282.5683,424.35254
3284.18406,430.27296
3285.79981,430.27296
3287.41557,430.27296
3289.03132,430.27296
3290.64708,430.27296
3290.64708,430.93079
3292.26284,431.58861
3292.26284,432.24644
3292.26284,430.93079
3293.87859,432.90426
3293.87859,433.56209
3293.87859,434.21991
3293.87859,434.87774
3293.87859,432.24644
3295.49435,435.53556
3297.1101,434.87774
3298.72586,434.21991
3300.34162,433.56209
3301.95737,434.21991
3303.57313,433.56209
3303.57313,432.90426
3305.18888,433.56209
3305.18888,434.87774
3305.18888,435.53556
3305.18888,436.19338
3305.18888,436.85121
3305.18888,434.21991
3305.18888,437.50903
3306.80464,434.21991
3306.80464,437.50903
3306.80464,438.16686
3308.42039,438.82468
3308.42039,438.16686
3308.42039,434.87774
3310.03615,434.87774
3310.03615,435.53556
3310.03615,436.19338
3310.03615,439.48251
3311.65191,439.48251
3311.65191,436.19338
3311.65191,440.14033
3313.26766,440.79816
3313.26766,436.85121
3313.26766,440.14033
3314.88342,438.82468
3314.88342,438.16686
3314.88342,439.48251
3314.88342,437.50903
3314.88342,441.45598
3314.88342,440.14033
3314.88342,440.79816
3316.49917,440.79816
3316.49917,441.45598
3318.11493,442.1138
3318.11493,440.79816
3318.11493,441.45598
3319.73068,442.1138
3319.73068,442.77163
3319.73068,441.45598
3321.34644,441.45598
3321.34644,444.08728
3321.34644,443.42945
3322.9622,439.48251
3322.9622,440.14033
3322.9622,440.79816
3322.9622,438.82468
3324.57795,437.50903
3324.57795,436.85121
3324.57795,438.82468
3324.57795,438.16686
3326.19371,436.19338
3326.19371,436.85121
3327.80946,434.87774
3327.80946,435.53556
3329.42522,434.21991
3331.04098,433.56209
3332.65673,432.90426
3334.27249,430.93079
3334.27249,432.24644
3334.27249,432.90426
3334.27249,431.58861
3335.88824,429.61514
3335.88824,430.27296
3335.88824,428.95732
3337.504,430.93079
3337.504,430.27296
3337.504,431.58861
3337.504,432.24644
3337.504,432.90426
3337.504,433.56209
3337.504,428.95732
3337.504,429.61514
3339.11975,433.56209
3340.73551,433.56209
3342.35127,435.53556
3342.35127,436.19338
3342.35127,436.85121
3342.35127,437.50903
3342.35127,438.16686
3342.35127,434.87774
3342.35127,434.21991
3343.96702,438.16686
3345.58278,438.16686
3347.19853,438.16686
3348.81429,438.16686
3348.81429,438.82468
3350.43004,442.1138
3350.43004,440.14033
3350.43004,440.79816
3350.43004,439.48251
3350.43004,438.82468
3350.43004,441.45598
3352.0458,442.1138
3353.66156,442.77163
3355.27731,442.1138
3356.89307,441.45598
3358.50882,439.48251
3358.50882,440.79816
3358.50882,440.14033
3360.12458,438.82468
3361.74033,438.82468
3363.35609,438.82468
3363.35609,438.16686
3364.97185,438.16686
3366.5876,437.50903
3368.20336,437.50903
3369.81911,437.50903
3371.43487,437.50903
3373.05063,437.50903
3374.66638,438.16686
3376.28214,438.82468
3377.89789,439.48251
3379.51365,442.77163
3379.51365,442.1138
3379.51365,437.50903
3379.51365,441.45598
3379.51365,440.14033
3379.51365,440.79816
3379.51365,438.82468
3379.51365,438.16686
3381.1294,437.50903
3381.1294,436.85121
3381.1294,435.53556
3381.1294,436.19338
3381.1294,440.14033
3382.74516,439.48251
3382.74516,438.82468
3382.74516,438.16686
3382.74516,437.50903
3382.74516,436.85121
3382.74516,436.19338
3382.74516,434.87774
3382.74516,435.53556
3384.36092,433.56209
3384.36092,434.87774
3385.97667,434.21991
3385.97667,433.56209
3387.59243,429.61514
3387.59243,428.95732
3387.59243,432.90426
3387.59243,430.27296
3389.20818,430.93079
3389.20818,428.29949
3389.20818,427.64167
3389.20818,428.95732
3389.20818,432.90426
3390.82394,426.98384
3390.82394,432.24644
3390.82394,431.58861
3390.82394,432.90426
3392.43969,426.32602
3394.05545,426.32602
3394.05545,425.01037
3395.67121,423.0369
3395.67121,426.32602
3395.67121,425.66819
3395.67121,424.35254
3395.67121,423.69472
3419.90754,442.77163
3421.5233,442.77163
3421.5233,442.1138
3421.5233,440.79816
3421.5233,443.42945
3421.5233,441.45598
3423.13905,441.45598
3423.13905,442.1138
3423.13905,443.42945
3423.13905,440.79816
3424.75481,440.14033
3424.75481,439.48251
3424.75481,438.82468
3424.75481,438.16686
3424.75481,437.50903
3424.75481,436.85121
3424.75481,436.19338
3424.75481,435.53556
3424.75481,434.87774
3424.75481,434.21991
3424.75481,440.79816
3426.37057,438.82468
3426.37057,439.48251
3426.37057,434.21991
3426.37057,440.79816
3426.37057,440.14033
3427.98632,438.82468
3427.98632,438.16686
3427.98632,434.87774
3427.98632,434.21991
3429.60208,436.19338
3429.60208,437.50903
3429.60208,435.53556
3429.60208,434.87774
3429.60208,436.85121
3429.60208,434.21991
3431.21783,434.87774
3431.21783,434.21991
3432.83359,434.21991
3432.83359,433.56209
3432.83359,432.90426
3432.83359,432.24644
3432.83359,431.58861
3432.83359,430.93079
3432.83359,430.27296
3432.83359,429.61514
3432.83359,428.95732
3434.44934,428.95732
3434.44934,428.29949
3436.0651,428.29949
3437.68086,428.29949
3439.29661,428.95732
3440.91237,429.61514
3442.52812,428.95732
3444.14388,428.29949
3445.75964,431.58861
3445.75964,428.29949
3445.75964,428.95732
3445.75964,429.61514
3445.75964,430.27296
3445.75964,430.93079
3445.75964,432.90426
3445.75964,432.24644
3447.37539,433.56209
3448.99115,434.21991
3448.99115,433.56209
3450.6069,434.87774
3450.6069,434.21991
3452.22266,435.53556
3453.83841,435.53556
3455.45417,435.53556
3457.06993,434.87774
3458.68568,434.21991
3460.30144,434.87774
3461.91719,435.53556
3463.53295,435.53556
3465.1487,432.24644
3465.1487,435.53556
3465.1487,434.87774
3465.1487,434.21991
3465.1487,433.56209
3465.1487,432.90426
3465.1487,431.58861
3466.76446,431.58861
3468.38022,431.58861
3469.99597,431.58861
3471.61173,431.58861
3473.22748,431.58861
3474.84324,426.32602
3474.84324,430.93079
3474.84324,430.27296
3474.84324,429.61514
3474.84324,428.95732
3474.84324,428.29949
3474.84324,427.64167
3474.84324,426.98384
3476.459,423.0369
3476.459,425.66819
3476.459,422.37907
3476.459,423.69472
3478.07475,424.35254
3478.07475,425.01037
3478.07475,421.06342
3478.07475,421.72125
3478.07475,420.4056
3479.69051,421.06342
3479.69051,420.4056
3481.30626,424.35254
3481.30626,423.0369
3481.30626,421.72125
3481.30626,425.01037
3481.30626,423.69472
3481.30626,425.66819
3482.92202,426.32602
3482.92202,422.37907
3484.53777,427.64167
3484.53777,428.29949
3484.53777,426.98384
3486.15353,428.95732
3487.76929,429.61514
3489.38504,429.61514
3491.0008,429.61514
3492.61655,429.61514
3494.23231,428.95732
3495.84806,428.95732
3497.46382,428.95732
3499.07958,426.32602
3499.07958,428.95732
3499.07958,428.29949
3499.07958,427.64167
3499.07958,429.61514
3499.07958,426.98384
3500.69533,425.66819
3500.69533,426.32602
3502.31109,425.66819
3502.31109,425.01037
3503.92684,425.01037
3505.5426,424.35254
3505.5426,425.01037
3505.5426,423.69472
3507.15835,423.0369
3508.77411,423.0369
3510.38987,421.72125
3510.38987,423.0369
3512.00562,422.37907
3512.00562,423.0369
3512.00562,420.4056
3512.00562,421.06342
3513.62138,420.4056
3513.62138,421.72125
3513.62138,422.37907
3513.62138,423.0369
3513.62138,421.06342
3515.23713,423.0369
3516.85289,423.0369
3518.46865,424.35254
3518.46865,423.0369
3518.46865,423.69472
3520.0844,425.01037
3520.0844,424.35254
3520.0844,425.66819
3521.70016,426.98384
3521.70016,425.66819
3521.70016,426.32602
3521.70016,428.29949
3521.70016,427.64167
3523.31591,427.64167
3524.93167,426.98384
3526.54742,427.64167
3528.16318,428.29949
3529.77894,428.29949
3529.77894,428.95732
3531.39469,428.29949
3533.01045,428.29949
3534.6262,427.64167
3536.24196,426.32602
3536.24196,426.98384
3536.24196,423.0369
3536.24196,425.66819
3536.24196,425.01037
3536.24196,424.35254
3536.24196,423.69472
3537.85771,422.37907
3539.47347,423.0369
3541.08923,423.69472
3542.70498,424.35254
3544.32074,425.01037
3545.93649,425.01037
3547.55225,425.01037
3549.16801,425.01037
3550.78376,424.35254
3552.39952,423.69472
3554.01527,423.0369
3555.63103,426.98384
3555.63103,423.0369
3555.63103,423.69472
3555.63103,424.35254
3555.63103,425.01037
3555.63103,425.66819
3555.63103,427.64167
3555.63103,428.29949
3555.63103,426.32602
3557.24678,428.95732
3558.86254,428.95732
3560.4783,428.95732
3562.09405,428.95732
3563.70981,429.61514
3563.70981,428.95732
3565.32556,434.21991
3565.32556,429.61514
3565.32556,431.58861
3565.32556,430.93079
3565.32556,432.24644
3565.32556,432.90426
3565.32556,433.56209
3565.32556,430.27296
3566.94132,434.21991
3566.94132,434.87774
3568.55707,435.53556
3570.17283,435.53556
3571.78859,434.87774
3573.40434,434.87774
3575.0201,435.53556
3576.63585,435.53556
3578.25161,435.53556
3579.86736,432.90426
3579.86736,434.87774
3579.86736,434.21991
3579.86736,432.24644
3579.86736,431.58861
3579.86736,433.56209
3579.86736,427.64167
3579.86736,428.29949
3579.86736,430.93079
3579.86736,430.27296
3579.86736,429.61514
3581.48312,428.95732
3581.48312,430.93079
3581.48312,430.27296
3581.48312,426.98384
3581.48312,426.32602
3581.48312,432.24644
3583.09888,425.66819
3583.09888,425.01037
3583.09888,423.69472
3583.09888,429.61514
3583.09888,431.58861
3583.09888,424.35254
3584.71463,423.0369
3584.71463,423.69472
3584.71463,424.35254
3584.71463,425.01037
3584.71463,432.24644
3584.71463,428.95732
3586.33039,432.90426
3586.33039,428.29949
3586.33039,425.66819
3586.33039,423.0369
3586.33039,423.69472
3587.94614,423.69472
3587.94614,423.0369
3587.94614,426.32602
3587.94614,427.64167
3587.94614,426.98384
3589.5619,423.69472
3589.5619,423.0369
3591.17766,422.37907
3591.17766,423.0369
3591.17766,421.06342
3591.17766,421.72125
3591.17766,419.08995
3591.17766,419.74777
3591.17766,420.4056
3591.17766,423.69472
3592.79341,421.06342
3592.79341,422.37907
3592.79341,420.4056
3592.79341,419.74777
3592.79341,421.72125
3592.79341,419.08995
3592.79341,423.0369
3594.40917,419.08995
3594.40917,419.74777
3596.02492,419.08995
3596.02492,419.74777
3597.64068,420.4056
3597.64068,419.74777
3599.25643,420.4056
3599.25643,421.06342
3600.87219,421.06342
3600.87219,420.4056
3602.48795,421.06342
3602.48795,421.72125
3604.1037,421.72125
3604.1037,421.06342
3605.71946,420.4056
3605.71946,421.06342
3607.33521,421.06342
3607.33521,420.4056
3608.95097,421.06342
3608.95097,420.4056
3610.56672,421.72125
3610.56672,421.06342
3612.18248,421.06342
3612.18248,421.72125
3613.79824,421.72125
3613.79824,421.06342
3615.41399,421.72125
3615.41399,421.06342
3617.02975,420.4056
3617.02975,421.06342
3617.02975,421.72125
3617.02975,419.74777
3617.02975,419.08995
3617.02975,418.43212
3618.6455,418.43212
3618.6455,417.11648
3618.6455,417.7743
3618.6455,421.06342
3620.26126,417.7743
3620.26126,421.06342
3620.26126,420.4056
3620.26126,419.74777
3620.26126,418.43212
3620.26126,419.08995
3620.26126,416.45865
3620.26126,417.11648
3621.87702,417.11648
3621.87702,416.45865
3623.49277,417.11648
3623.49277,416.45865
3623.49277,415.80083
3625.10853,415.143
3625.10853,417.11648
3626.72428,415.143
3626.72428,417.11648
3626.72428,416.45865
3628.34004,413.16953
3628.34004,412.5117
3628.34004,415.80083
3628.34004,416.45865
3628.34004,414.48518
3628.34004,413.82735
3628.34004,415.143
3629.95579,411.85388
3629.95579,415.143
3629.95579,415.80083
3629.95579,410.53823
3629.95579,414.48518
3629.95579,411.19606
3631.57155,409.88041
3631.57155,409.22258
3631.57155,414.48518
3631.57155,410.53823
3633.18731,408.56476
3633.18731,410.53823
3633.18731,411.19606
3633.18731,411.85388
3633.18731,412.5117
3633.18731,413.16953
3633.18731,413.82735
3633.18731,409.88041
3633.18731,409.22258
3634.80306,409.22258
3634.80306,408.56476
3634.80306,407.90693
3636.41882,407.90693
3636.41882,407.24911
3636.41882,408.56476
3638.03457,407.90693
3638.03457,407.24911
3639.65033,407.24911
3641.26608,407.24911
3642.88184,406.59128
3642.88184,407.24911
3644.4976,405.27564
3644.4976,405.93346
3644.4976,406.59128
3644.4976,407.24911
3646.11335,406.59128
3646.11335,405.93346
3646.11335,405.27564
3646.11335,407.24911
3646.11335,407.90693
3647.72911,409.22258
3647.72911,409.88041
3647.72911,413.16953
3647.72911,411.85388
3647.72911,411.19606
3647.72911,410.53823
3647.72911,408.56476
3647.72911,413.82735
3647.72911,412.5117
3649.34486,414.48518
3650.96062,414.48518
3650.96062,415.143
3652.57637,415.143
3652.57637,415.80083
3654.19213,415.80083
3655.80789,415.80083
3657.42364,415.80083
3659.0394,417.11648
3659.0394,415.80083
3659.0394,416.45865
3660.65515,421.06342
3660.65515,417.11648
3660.65515,417.7743
3660.65515,418.43212
3660.65515,419.08995
3660.65515,419.74777
3660.65515,420.4056
3660.65515,421.72125
3662.27091,421.72125
3663.88667,421.06342
3665.50242,420.4056
3667.11818,421.06342
3668.73393,421.72125
3670.34969,421.72125
3671.96544,421.06342
3671.96544,420.4056
3673.5812,420.4056
3675.19696,419.08995
3675.19696,420.4056
3675.19696,419.74777
3675.19696,417.11648
3675.19696,418.43212
3675.19696,417.7743
3676.81271,416.45865
3678.42847,416.45865
3680.04422,415.80083
3680.04422,415.143
3680.04422,416.45865
3681.65998,414.48518
3681.65998,415.143
3683.27573,413.82735
3683.27573,413.16953
3683.27573,414.48518
3684.89149,413.16953
3684.89149,411.85388
3684.89149,411.19606
3684.89149,410.53823
3684.89149,409.88041
3684.89149,409.22258
3684.89149,408.56476
3684.89149,412.5117
3686.50725,408.56476
3688.123,407.90693
3688.123,408.56476
3689.73876,407.90693
3691.35451,407.90693
3692.97027,407.90693
3694.58603,408.56476
3696.20178,409.22258
3697.81754,409.88041
3699.43329,410.53823
3701.04905,410.53823
3701.04905,411.19606
3702.6648,411.19606
3704.28056,411.19606
3705.89632,411.19606
3707.51207,411.19606
3709.12783,411.19606
3709.12783,411.85388
3709.12783,413.16953
3709.12783,413.82735
3709.12783,412.5117
3710.74358,414.48518
3710.74358,413.82735
3712.35934,415.143
3713.97509,415.143
3713.97509,416.45865
3713.97509,415.80083
3715.59085,417.11648
3715.59085,416.45865
3717.20661,417.11648
3717.20661,417.7743
3718.82236,417.7743
3720.43812,417.7743
3722.05387,417.11648
3723.66963,416.45865
3725.28538,417.11648
3726.90114,417.7743
3728.5169,417.7743
3728.5169,417.11648
3728.5169,416.45865
3728.5169,415.80083
3728.5169,415.143
3730.13265,415.143
3730.13265,414.48518
3731.74841,413.82735
3733.36416,413.16953
3734.97992,412.5117
3736.59568,412.5117
3738.21143,412.5117
3739.82719,412.5117
3741.44294,412.5117
3741.44294,411.85388
3741.44294,411.19606
3741.44294,409.88041
3741.44294,410.53823
3743.0587,411.19606
3743.0587,412.5117
3743.0587,409.88041
3743.0587,410.53823
3744.67445,411.85388
3744.67445,412.5117
3744.67445,413.16953
3746.29021,413.16953
3747.90597,413.82735
3749.52172,413.82735
3749.52172,414.48518
3749.52172,415.143
3751.13748,415.143
3751.13748,415.80083
3751.13748,416.45865
3751.13748,417.11648
3751.13748,417.7743
3751.13748,418.43212
3751.13748,419.08995
3752.75323,419.74777
3754.36899,419.74777
3755.98474,419.74777
3757.6005,419.08995
3759.21626,419.74777
3760.83201,419.08995
3760.83201,419.74777
3762.44777,419.08995
3764.06352,419.08995
3764.06352,417.7743
3764.06352,418.43212
3765.67928,417.7743
3765.67928,417.11648
3767.29504,417.11648
3768.91079,417.11648
3770.52655,416.45865
3770.52655,415.80083
3772.1423,415.143
3773.75806,413.82735
3773.75806,414.48518
3773.75806,413.16953
3775.37381,412.5117
3776.98957,413.16953
3778.60533,413.82735
3780.22108,414.48518
3781.83684,413.82735
3783.45259,414.48518
3785.06835,413.82735
3786.6841,413.16953
3788.29986,412.5117
3789.91562,413.16953
3791.53137,413.82735
3793.14713,413.82735
3794.76288,413.16953
3796.37864,412.5117
3796.37864,415.143
3796.37864,413.16953
3796.37864,413.82735
3796.37864,414.48518
3797.99439,415.80083
3797.99439,415.143
3799.61015,416.45865
3801.22591,416.45865
3802.84166,417.11648
3804.45742,417.11648
3806.07317,417.11648
3807.68893,417.11648
3809.30469,416.45865
3810.92044,415.143
3810.92044,415.80083
3810.92044,414.48518
3812.5362,413.16953
3812.5362,414.48518
3812.5362,413.82735
3814.15195,411.19606
3814.15195,413.16953
3814.15195,412.5117
3814.15195,411.85388
3815.76771,409.88041
3815.76771,410.53823
3817.38346,408.56476
3817.38346,409.22258
3818.99922,408.56476
3818.99922,407.90693
3818.99922,407.24911
3820.61498,407.24911
3820.61498,406.59128
3822.23073,406.59128
3822.23073,405.93346
3823.84649,405.93346
3825.46224,405.93346
3827.078,406.59128
3828.69375,407.24911
3830.30951,406.59128
3831.92527,405.93346
3833.54102,405.93346
3835.15678,405.93346
3836.77253,406.59128
3836.77253,407.24911
3836.77253,407.90693
3836.77253,408.56476
3838.38829,410.53823
3838.38829,409.88041
3838.38829,409.22258
3840.00405,410.53823
3840.00405,412.5117
3840.00405,411.85388
3840.00405,411.19606
3841.6198,410.53823
3841.6198,409.88041
3841.6198,411.85388
3841.6198,411.19606
3843.23556,409.88041
3844.85131,409.88041
3846.46707,409.22258
3848.08282,408.56476
3848.08282,407.90693
3849.69858,407.24911
3849.69858,407.90693
3851.31434,405.93346
3851.31434,407.24911
3851.31434,406.59128
3852.93009,405.93346
3854.54585,405.93346
3854.54585,405.27564
3856.1616,403.95999
3856.1616,404.61781
3856.1616,405.27564
3857.77736,402.64434
3857.77736,401.98651
3857.77736,401.32869
3857.77736,400.67087
3857.77736,403.30216
3857.77736,403.95999
3859.39311,400.67087
3861.00887,401.32869
3862.62463,401.98651
3864.24038,401.32869
3865.85614,400.67087
3867.47189,400.67087
3869.08765,401.32869
3870.7034,401.98651
3872.31916,402.64434
3872.31916,401.98651
3872.31916,404.61781
3872.31916,405.27564
3872.31916,403.95999
3872.31916,403.30216
3873.93492,405.93346
3875.55067,405.93346
3877.16643,405.93346
3878.78218,405.93346
3880.39794,405.27564
3882.0137,405.93346
3883.62945,405.27564
3885.24521,404.61781
3886.86096,403.95999
3888.47672,403.30216
3890.09247,403.30216
3891.70823,403.95999
3893.32399,403.95999
3894.93974,403.95999
3896.5555,403.95999
3898.17125,404.61781
3899.78701,404.61781
3901.40276,405.93346
3901.40276,407.24911
3901.40276,405.27564
3901.40276,407.90693
3901.40276,406.59128
3903.01852,407.90693
3903.01852,408.56476
3904.63428,409.22258
3904.63428,408.56476
3906.25003,409.88041
3907.86579,409.88041
3909.48154,410.53823
3911.0973,410.53823
3912.71306,410.53823
3914.32881,409.88041
3915.94457,409.22258
3917.56032,408.56476
3919.17608,408.56476
3920.79183,408.56476
3922.40759,410.53823
3922.40759,411.19606
3922.40759,411.85388
3922.40759,409.22258
3922.40759,409.88041
3924.02335,412.5117
3925.6391,412.5117
3927.25486,413.16953
3927.25486,412.5117
3928.87061,413.16953
3930.48637,413.16953
3932.10212,413.82735
3932.10212,414.48518
3933.71788,414.48518
3935.33364,414.48518
3936.94939,415.80083
3936.94939,414.48518
3936.94939,415.143
3938.56515,415.80083
3940.1809,416.45865
3941.79666,416.45865
3943.41241,416.45865
3945.02817,416.45865
3946.64393,416.45865
3948.25968,414.48518
3948.25968,413.82735
3948.25968,413.16953
3948.25968,412.5117
3948.25968,415.143
3948.25968,415.80083
3949.87544,412.5117
3949.87544,411.85388
3951.49119,411.85388
3951.49119,411.19606
3953.10695,411.19606
3954.72271,409.88041
3954.72271,410.53823
3956.33846,409.22258
3956.33846,409.88041
3957.95422,408.56476
3957.95422,409.22258
3959.56997,407.90693
3959.56997,408.56476
3961.18573,407.90693
3962.80148,408.56476
3964.41724,409.22258
3966.033,409.88041
3967.64875,409.88041
3969.26451,409.88041
3970.88026,409.22258
3972.49602,408.56476
3974.11177,407.90693
3975.72753,407.24911
3977.34329,407.90693
3978.95904,409.22258
3978.95904,408.56476
3980.5748,409.88041
3982.19055,410.53823
3982.19055,409.88041
3983.80631,410.53823
3985.42207,410.53823
3987.03782,411.19606
3988.65358,410.53823
3990.26933,409.88041
3991.88509,409.22258
3993.50084,409.22258
3995.1166,409.88041
3996.73236,410.53823
3998.34811,411.19606
3999.96387,409.22258
3999.96387,408.56476
3999.96387,407.90693
3999.96387,407.24911
3999.96387,406.59128
3999.96387,405.93346
3999.96387,410.53823
3999.96387,409.88041
