Raman Shift,Intensity
153.342,10131.56
153.824,10147.03
154.306,10180.09
154.788,10235.55
155.27,10276.37
155.752,10284.98
156.234,10281.81
156.716,10290.31
157.198,10331.31
157.68,10371.37
158.163,10396.76
158.645,10400.5
159.127,10406.62
159.609,10420.02
160.091,10439.46
160.573,10463.06
161.055,10492.26
161.538,10522.73
162.02,10551.89
162.502,10580.1
162.984,10603.79
163.466,10617.88
163.948,10624.75
164.43,10633.06
164.912,10653.21
165.394,10673.17
165.876,10681.94
166.359,10655.81
166.841,10638.73
167.323,10668.91
167.805,10740.28
168.287,10800.88
168.769,10808.92
169.251,10791.49
169.733,10781.16
170.216,10797.15
170.698,10820.82
171.18,10837.4
171.662,10846.73
172.144,10855.41
172.626,10871.51
173.108,10890.51
173.59,10904.26
174.072,10900.78
174.555,10893.63
175.037,10899.02
175.519,10919.07
176.001,10945.19
176.483,10968.83
176.965,10991.5
177.447,11017.41
177.929,11057.16
178.412,11099.75
178.894,11126.08
179.376,11131.25
179.858,11125.15
180.34,11110.48
180.822,11090.51
181.304,11084.73
181.786,11116.09
182.268,11171.61
182.751,11219.64
183.233,11253.58
183.715,11277.72
184.197,11294.5
184.679,11304.33
185.161,11316.69
185.643,11342.25
186.125,11377.58
186.607,11411.8
187.09,11446.66
187.572,11475.54
188.054,11475.91
188.536,11445.35
189.018,11413.24
189.5,11409.98
189.982,11433.06
190.464,11462.32
190.947,11495.97
191.429,11531.17
191.911,11554.58
192.393,11565.86
192.875,11567.42
193.357,11551.61
193.839,11518.83
194.321,11507.87
194.803,11556.49
195.286,11655.1
195.768,11681.36
196.25,11618.09
196.732,11524.54
197.214,11487.5
197.696,11511.42
198.178,11555.22
198.661,11608.22
199.143,11670.83
199.625,11722.95
200.107,11767.5
200.589,11797.94
201.071,11790.95
201.553,11736.39
202.035,11692.71
202.517,11698.38
202.999,11759.46
203.482,11804.07
203.964,11821.07
204.446,11822.69
204.928,11844.63
205.41,11891.82
205.892,11942.39
206.374,11983.58
206.857,12015.5
207.339,12034.86
207.821,12035.08
208.303,12023.16
208.785,12031.37
209.267,12066.03
209.749,12107.26
210.231,12144.61
210.713,12182.67
211.195,12199.41
211.678,12183.98
212.16,12142.39
212.642,12122.01
213.124,12125.61
213.606,12146.3
214.088,12183.35
214.57,12248.16
215.052,12295.55
215.535,12311.45
216.017,12297.06
216.499,12296.39
216.981,12307.15
217.463,12333.68
217.945,12387.29
218.427,12484.23
218.909,12561.98
219.391,12597.62
219.874,12587.51
220.356,12603.04
220.838,12658.58
221.32,12724.23
221.802,12761.45
222.284,12759.54
222.766,12752.66
223.248,12747.24
223.731,12741.86
224.213,12752.57
224.695,12794.28
225.177,12840.91
225.659,12851.9
226.141,12807.91
226.623,12764.3
227.105,12735.93
227.587,12722.35
228.07,12727.11
228.552,12756.82
229.034,12800.54
229.516,12840.12
229.998,12878.24
230.48,12906.64
230.962,12918.52
231.444,12903.19
231.926,12906.81
232.409,12941.25
232.891,12989.17
233.373,13012.71
233.855,12990.8
234.337,12976.91
234.819,12996.0
235.301,13073.21
235.783,13120.09
236.266,13124.64
236.748,13102.89
237.23,13092.61
237.712,13095.01
238.194,13107.44
238.676,13130.04
239.158,13169.03
239.64,13203.33
240.122,13223.25
240.605,13240.36
241.087,13293.19
241.569,13417.7
242.051,13528.98
242.533,13580.9
243.015,13537.84
243.497,13515.31
243.98,13522.11
244.462,13550.97
244.944,13576.57
245.426,13594.65
245.908,13614.38
246.39,13640.42
246.872,13673.22
247.354,13709.72
247.836,13750.85
248.318,13794.76
248.801,13835.06
249.283,13873.35
249.765,13905.14
250.247,13927.15
250.729,13935.42
251.211,13943.31
251.693,13952.58
252.176,13962.86
252.658,13968.88
253.14,13962.29
253.622,13965.35
254.104,13997.92
254.586,14084.78
255.068,14139.21
255.55,14143.33
256.032,14108.96
256.514,14091.4
256.997,14092.85
257.479,14108.07
257.961,14133.52
258.443,14168.37
258.925,14217.61
259.407,14291.74
259.889,14381.19
260.371,14438.3
260.854,14449.66
261.336,14449.58
261.818,14459.17
262.3,14477.81
262.782,14507.25
263.264,14549.21
263.746,14602.03
264.228,14656.84
264.711,14716.19
265.193,14773.01
265.675,14826.48
266.157,14881.6
266.639,14911.76
267.121,14904.5
267.603,14869.99
268.085,14854.53
268.567,14860.64
269.05,14881.22
269.532,14914.1
270.014,14962.46
270.496,15008.91
270.978,15049.37
271.46,15086.29
271.942,15131.64
272.424,15189.44
272.906,15244.88
273.389,15286.24
273.871,15311.06
274.353,15335.89
274.835,15360.3
275.317,15386.98
275.799,15425.33
276.281,15474.89
276.763,15536.93
277.246,15625.9
277.728,15746.96
278.21,15824.22
278.692,15836.03
279.174,15800.89
279.656,15766.33
280.138,15725.44
280.62,15718.54
281.103,15795.59
281.585,15957.84
282.067,16089.7
282.549,16172.02
283.031,16215.33
283.513,16246.7
283.995,16265.86
284.477,16275.1
284.959,16270.56
285.441,16253.83
285.924,16244.08
286.406,16240.69
286.888,16250.26
287.37,16299.71
287.852,16390.869
288.334,16471.99
288.816,16493.641
289.298,16467.311
289.781,16464.211
290.263,16498.301
290.745,16554.0
291.227,16606.961
291.709,16657.25
292.191,16698.189
292.673,16726.67
293.155,16742.641
293.638,16741.48
294.12,16714.84
294.602,16686.609
295.084,16697.67
295.566,16744.73
296.048,16799.24
296.53,16854.82
297.012,16905.391
297.494,16930.84
297.977,16923.02
298.459,16907.199
298.941,16922.881
299.423,16962.66
299.905,16991.539
300.387,16969.359
300.869,16927.789
301.351,16920.221
301.833,16955.859
302.316,17015.141
302.798,16978.449
303.28,17066.877
303.762,17124.938
304.244,17154.256
304.726,17068.754
305.208,17131.518
305.69,17134.863
306.172,17135.771
306.655,17186.689
307.137,17195.82
307.619,17225.061
308.101,17250.109
308.583,17266.061
309.065,17260.93
309.547,17229.65
310.03,17209.699
310.512,17248.561
310.994,17314.131
311.476,17352.83
311.958,17320.9
312.44,17269.801
312.922,17231.57
313.404,17209.43
313.886,17191.471
314.369,17178.4
314.851,17163.99
315.333,17140.619
315.815,17090.91
316.297,17043.869
316.779,17012.77
317.261,16998.49
317.743,16994.189
318.225,17014.1
318.708,17036.539
319.19,17039.49
319.672,16975.66
320.154,16931.99
320.636,16955.82
321.118,16920.494
321.6,16950.121
322.082,16963.982
322.565,16962.924
323.047,16902.258
323.529,16918.562
324.011,16904.02
324.493,16904.75
324.975,16868.859
325.457,16846.211
325.939,16845.67
326.422,16854.27
326.904,16864.369
327.386,16897.25
327.868,16905.381
328.35,16870.75
328.832,16803.68
329.314,16757.73
329.796,16739.641
330.278,16736.67
330.76,16744.15
331.243,16774.311
331.725,16794.35
332.207,16800.27
332.689,16796.34
333.171,16795.949
333.653,16806.689
334.135,16810.16
334.617,16796.539
335.1,16757.391
335.582,16725.869
336.064,16704.91
336.546,16689.92
337.028,16671.631
337.51,16648.82
337.992,16626.369
338.474,16605.93
338.957,16587.539
339.439,16568.439
339.921,16546.561
340.403,16526.34
340.885,16519.971
341.367,16530.85
341.849,16527.82
342.331,16494.15
342.813,16433.939
343.296,16384.279
343.778,16345.44
344.26,16317.56
344.742,16309.62
345.224,16319.95
345.706,16317.21
346.188,16285.97
346.67,16237.71
347.152,16205.12
347.635,16188.8
348.117,16179.19
348.599,16170.23
349.081,16161.08
349.563,16148.09
350.045,16123.89
350.527,16101.26
351.009,16110.43
351.491,16146.3
351.974,16171.9
352.456,16159.61
352.938,16119.24
353.42,16062.38
353.902,15979.69
354.384,15905.23
354.866,15891.35
355.349,15919.64
355.831,15929.14
356.313,15861.59
356.795,15771.98
357.277,15717.43
357.759,15715.62
358.241,15715.82
358.723,15683.14
359.205,15630.39
359.688,15580.29
360.17,15530.3
360.652,15494.85
361.134,15489.32
361.616,15520.07
362.098,15542.73
362.58,15546.19
363.062,15530.21
363.544,15494.64
364.027,15414.92
364.509,15338.46
364.991,15279.08
365.473,15237.31
365.955,15204.85
366.437,15194.52
366.919,15184.83
367.401,15159.6
367.884,15092.33
368.366,15038.42
368.848,15013.68
369.33,15013.05
369.812,14994.53
370.294,14936.81
370.776,14880.85
371.258,14851.59
371.741,14875.21
372.223,14873.87
372.705,14834.5
373.187,14771.16
373.669,14720.81
374.151,14685.91
374.633,14658.35
375.115,14635.38
375.597,14618.02
376.079,14599.63
376.562,14581.5
377.044,14559.63
377.526,14524.93
378.008,14474.22
378.49,14429.1
378.972,14396.32
379.454,14376.05
379.936,14368.75
380.419,14377.98
380.901,14385.46
381.383,14370.17
381.865,14334.24
382.347,14293.39
382.829,14249.18
383.311,14205.06
383.793,14152.9
384.276,14105.073
384.758,14128.384
385.24,14134.428
385.722,14124.126
386.204,14048.547
386.686,14057.266
387.168,14032.2
387.65,14005.752
388.132,14026.335
388.615,13960.247
389.097,13980.084
389.579,13965.623
390.061,13966.858
390.543,13934.104
391.025,13911.849
391.507,13923.591
391.989,13878.69
392.471,13859.47
392.954,13879.74
393.436,13902.81
393.918,13910.67
394.4,13902.06
394.882,13887.22
395.364,13853.87
395.846,13824.02
396.328,13817.18
396.81,13881.32
397.293,13922.18
397.775,13908.42
398.257,13846.11
398.739,13797.49
399.221,13766.65
399.703,13750.73
400.185,13750.1
400.668,13790.41
401.15,13803.66
401.632,13770.59
402.114,13713.76
402.596,13690.89
403.078,13720.51
403.56,13752.03
404.042,13766.42
404.524,13761.29
405.007,13756.1
405.489,13753.61
405.971,13747.13
406.453,13718.74
406.935,13661.65
407.417,13633.36
407.899,13663.6
408.381,13735.64
408.863,13768.27
409.346,13758.0
409.828,13734.73
410.31,13727.1
410.792,13730.33
411.274,13718.7
411.756,13681.48
412.238,13636.57
412.72,13611.53
413.203,13604.42
413.685,13602.62
414.167,13604.07
414.649,13603.97
415.131,13594.11
415.613,13571.96
416.095,13546.65
416.577,13515.29
417.06,13486.63
417.542,13475.92
418.024,13512.86
418.506,13552.23
418.988,13565.44
419.47,13551.64
419.952,13524.59
420.434,13470.27
420.916,13415.12
421.398,13381.15
421.881,13407.1
422.363,13419.43
422.845,13391.95
423.327,13334.52
423.809,13291.09
424.291,13277.78
424.773,13270.89
425.255,13260.09
425.738,13240.0
426.22,13228.45
426.702,13234.17
427.184,13244.51
427.666,13240.11
428.148,13220.79
428.63,13185.28
429.112,13122.78
429.595,13032.33
430.077,12988.06
430.559,13001.88
431.041,13034.2
431.523,13052.66
432.005,13057.01
432.487,13045.08
432.969,13011.69
433.451,12966.4
433.934,12932.54
434.416,12910.05
434.898,12890.08
435.38,12860.33
435.862,12828.84
436.344,12823.44
436.826,12852.29
437.308,12882.78
437.79,12875.13
438.273,12840.63
438.755,12807.99
439.237,12791.16
439.719,12780.99
440.201,12768.21
440.683,12752.89
441.165,12742.04
441.647,12747.97
442.129,12756.33
442.612,12752.28
443.094,12717.05
443.576,12688.22
444.058,12688.72
444.54,12706.71
445.022,12708.15
445.504,12687.62
445.987,12646.98
446.469,12577.7
446.951,12450.03
447.433,12374.0
447.915,12380.65
448.397,12425.13
448.879,12456.25
449.361,12475.1
449.843,12478.29
450.326,12459.75
450.808,12422.28
451.29,12396.68
451.772,12386.58
452.254,12379.14
452.736,12365.42
453.218,12344.93
453.7,12322.83
454.182,12300.69
454.665,12275.21
455.147,12239.52
455.629,12193.86
456.111,12146.88
456.593,12094.94
457.075,12045.72
457.557,12026.19
458.039,12038.25
458.522,12053.47
459.004,12045.63
459.486,12023.08
459.968,12001.09
460.45,11984.46
460.932,11969.86
461.414,11952.06
461.896,11933.23
462.379,11921.04
462.861,11937.6
463.343,11949.65
463.825,11929.96
464.307,11861.37
464.789,11803.0
465.271,11777.1
465.753,11769.0
466.235,11758.87
466.717,11738.38
467.2,11721.3
467.682,11710.23
468.164,11705.05
468.646,11705.2
469.128,11717.91
469.61,11727.75
470.092,11723.49
470.574,11698.3
471.057,11676.74
471.539,11655.86
472.021,11642.6
472.503,11660.31
472.985,11716.19
473.467,11753.21
473.949,11734.09
474.431,11672.1
474.914,11650.46
475.396,11671.95
475.878,11704.53
476.36,11726.19
476.842,11735.25
477.324,11722.54
477.806,11672.98
478.288,11622.48
478.77,11617.53
479.253,11648.01
479.735,11679.11
480.217,11692.04
480.699,11697.33
481.181,11702.5
481.663,11707.94
482.145,11715.71
482.627,11727.81
483.109,11741.83
483.592,11755.09
484.074,11763.89
484.556,11774.04
485.038,11788.91
485.52,11806.87
486.002,11818.07
486.484,11826.25
486.966,11822.76
487.448,11801.92
487.931,11755.57
488.413,11715.08
488.895,11685.07
489.377,11656.25
489.859,11612.25
490.341,11547.85
490.823,11495.0
491.306,11465.24
491.788,11453.43
492.27,11443.36
492.752,11435.9
493.234,11419.57
493.716,11366.21
494.198,11295.14
494.68,11280.28
495.162,11344.17
495.645,11413.69
496.127,11406.28
496.609,11343.11
497.091,11272.8
497.573,11197.89
498.055,11139.38
498.537,11125.46
499.019,11152.23
499.501,11167.85
499.984,11138.77
500.466,11095.54
500.948,11061.28
501.43,11049.41
501.912,11032.08
502.394,10991.83
502.876,10970.737
503.358,10985.674
503.841,10991.864
504.323,10989.779
504.805,10954.631
505.287,10962.177
505.769,10952.613
506.251,10942.348
506.733,10955.902
507.215,10925.563
507.698,10938.739
508.18,10934.546
508.662,10938.303
509.144,10924.844
509.626,10916.702
510.108,10925.78
510.59,10925.324
511.072,10909.884
511.554,10914.146
512.036,10883.206
512.519,10883.156
513.001,10896.434
513.483,10881.859
513.965,10870.9
514.447,10854.6
514.929,10865.55
515.411,10885.63
515.893,10916.46
516.375,10948.63
516.858,10963.34
517.34,10930.66
517.822,10901.42
518.304,10897.13
518.786,10921.92
519.268,10939.88
519.75,10944.96
520.232,10946.38
520.715,10950.33
521.197,10958.88
521.679,10964.94
522.161,10967.13
522.643,10967.42
523.125,10968.78
523.607,10970.66
524.089,10978.45
524.571,11001.08
525.054,11031.74
525.536,11032.51
526.018,11001.8
526.5,10972.96
526.982,10983.97
527.464,11016.64
527.946,11028.17
528.429,11004.48
528.911,10975.27
529.393,10969.07
529.875,10977.68
530.357,10984.5
530.839,10979.09
531.321,10972.9
531.803,10974.05
532.286,10982.29
532.768,10985.03
533.25,10974.86
533.732,10961.2
534.214,10949.37
534.696,10936.21
535.178,10932.0
535.66,10944.9
536.142,10962.73
536.625,10963.68
537.107,10938.81
537.589,10922.33
538.071,10925.55
538.553,10944.68
539.035,10943.4
539.517,10912.9
539.999,10931.04
540.481,10911.669
540.964,10939.916
541.446,10956.604
541.928,10962.354
542.41,10924.408
542.892,10942.887
543.374,10938.753
543.856,10933.691
544.338,10960.112
544.82,10928.521
545.303,10954.442
545.785,10957.406
546.267,10970.876
546.749,10961.595
547.231,10959.341
547.713,10979.846
548.195,10987.749
548.677,10975.849
549.159,10989.986
549.642,10957.602
550.124,10966.041
550.606,10992.096
551.088,10981.339
551.57,10995.894
552.052,11000.808
552.534,10961.913
553.016,10999.207
553.499,11003.552
553.981,10974.064
554.463,11008.748
554.945,10983.926
555.427,10980.343
555.909,10992.745
556.391,10993.83
556.873,10997.71
557.356,11001.36
557.838,10994.31
558.32,10986.66
558.802,10984.61
559.284,10988.01
559.766,10996.59
560.248,11015.34
560.73,11034.91
561.213,11055.3
561.695,11076.44
562.177,11081.86
562.659,11050.26
563.141,11017.38
563.623,11000.32
564.105,11000.15
564.587,11015.84
565.069,11057.02
565.552,11102.76
566.034,11117.92
566.516,11098.75
566.998,11082.32
567.48,11078.9
567.962,11084.53
568.444,11092.14
568.926,11101.31
569.408,11104.87
569.891,11091.69
570.373,11072.76
570.855,11063.42
571.337,11065.09
571.819,11075.27
572.301,11105.85
572.783,11138.32
573.265,11151.05
573.747,11108.67
574.23,11085.06
574.712,11058.9
575.194,11017.961
575.676,11073.53
576.158,11105.672
576.64,11115.646
577.122,11037.06
577.604,11072.832
578.086,11062.773
578.569,11050.837
579.051,11102.704
579.533,11036.999
580.015,11087.854
580.497,11092.181
580.979,11117.802
581.461,11097.312
581.943,11089.85
582.426,11105.16
582.908,11127.22
583.39,11162.83
583.872,11189.89
584.354,11172.19
584.836,11122.67
585.318,11087.05
585.8,11095.62
586.282,11118.4
586.765,11138.87
587.247,11154.91
587.729,11171.72
588.211,11193.64
588.693,11214.41
589.175,11230.3
589.657,11245.34
590.14,11246.26
590.622,11224.7
591.104,11195.01
591.586,11187.13
592.068,11204.84
592.55,11219.42
593.032,11222.13
593.514,11215.09
593.996,11196.91
594.479,11169.12
594.961,11155.56
595.443,11188.03
595.925,11239.39
596.407,11268.16
596.889,11268.49
597.371,11264.19
597.853,11273.08
598.335,11284.12
598.818,11285.37
599.3,11254.31
599.782,11236.71
600.264,11257.5
600.746,11297.66
601.228,11311.0
601.71,11269.29
602.192,11243.32
602.674,11258.79
603.157,11310.95
603.639,11334.86
604.121,11325.14
604.603,11308.77
605.085,11296.7
605.567,11291.64
606.049,11320.36
606.531,11390.89
607.013,11454.47
607.496,11451.59
607.978,11406.48
608.46,11364.1
608.942,11328.14
609.424,11313.55
609.906,11348.43
610.388,11412.07
610.87,11457.08
611.353,11452.36
611.835,11442.62
612.317,11443.42
612.799,11455.42
613.281,11465.27
613.763,11467.56
614.245,11475.23
614.727,11502.33
615.209,11559.5
615.692,11575.15
616.174,11540.74
616.656,11488.74
617.138,11455.48
617.62,11438.99
618.102,11427.56
618.584,11417.57
619.067,11412.99
619.549,11424.19
620.031,11445.07
620.513,11459.92
620.995,11450.36
621.477,11441.55
621.959,11449.2
622.441,11472.63
622.923,11500.3
623.406,11539.55
623.888,11572.93
624.37,11591.66
624.852,11593.73
625.334,11586.87
625.816,11565.62
626.298,11542.61
626.78,11531.05
627.263,11531.82
627.745,11534.06
628.227,11535.48
628.709,11539.52
629.191,11552.6
629.673,11573.69
630.155,11598.33
630.637,11635.98
631.119,11667.96
631.602,11673.94
632.084,11656.85
632.566,11629.67
633.048,11569.67
633.53,11525.07
634.012,11534.38
634.494,11615.26
634.976,11669.03
635.458,11671.07
635.941,11653.89
636.423,11635.05
636.905,11606.12
637.387,11603.94
637.869,11640.43
638.351,11687.52
638.833,11694.97
639.315,11665.56
639.797,11648.5
640.28,11662.52
640.762,11690.66
641.244,11706.98
641.726,11714.38
642.208,11724.2
642.69,11747.03
643.172,11771.27
643.654,11793.47
644.137,11812.74
644.619,11815.16
645.101,11762.5
645.583,11717.32
646.065,11723.11
646.547,11809.3
647.029,11865.61
647.511,11881.86
647.994,11881.6
648.476,11887.08
648.958,11897.9
649.44,11918.55
649.922,11954.59
650.404,11990.45
650.886,11992.7
651.368,11969.22
651.851,11952.46
652.333,11966.03
652.815,11984.98
653.297,11977.63
653.779,11952.1
654.261,11941.42
654.743,11980.7
655.225,12021.72
655.707,12036.11
656.19,12016.77
656.672,12012.89
657.154,12042.15
657.636,12070.77
658.118,12074.87
658.6,12046.98
659.082,12029.29
659.564,12022.89
660.046,12025.74
660.529,12037.27
661.011,12056.31
661.493,12079.28
661.975,12111.21
662.457,12134.82
662.939,12118.89
663.421,12080.06
663.903,12055.54
664.385,12077.69
664.868,12103.57
665.35,12113.41
665.832,12108.73
666.314,12101.21
666.796,12075.29
667.278,12065.1
667.76,12087.96
668.242,12147.29
668.724,12187.51
669.207,12205.39
669.689,12212.01
670.171,12210.08
670.653,12201.57
671.135,12207.54
671.617,12232.06
672.099,12253.9
672.581,12246.41
673.064,12221.81
673.546,12200.65
674.028,12185.9
674.51,12181.82
674.992,12201.5
675.474,12232.28
675.956,12251.69
676.438,12250.11
676.92,12243.92
677.403,12237.34
677.885,12229.43
678.367,12210.82
678.849,12172.67
679.331,12152.33
679.813,12173.15
680.295,12225.41
680.778,12219.724
681.26,12267.309
681.742,12301.964
682.224,12324.38
682.706,12297.903
683.188,12334.562
683.67,12345.924
684.152,12356.241
684.634,12401.785
685.117,12382.422
685.599,12423.95
686.081,12434.3
686.563,12446.87
687.045,12455.53
687.527,12456.48
688.009,12439.79
688.491,12395.93
688.973,12376.88
689.456,12402.18
689.938,12444.04
690.42,12432.72
690.902,12378.23
691.384,12345.69
691.866,12385.28
692.348,12446.51
692.83,12470.06
693.312,12462.61
693.795,12452.81
694.277,12446.52
694.759,12447.71
695.241,12464.71
695.723,12500.31
696.205,12514.08
696.687,12481.73
697.169,12454.02
697.652,12463.3
698.134,12518.11
698.616,12553.95
699.098,12568.97
699.58,12573.28
700.062,12577.41
700.544,12579.84
701.026,12572.2
701.508,12549.93
701.991,12530.71
702.473,12529.75
702.955,12542.17
703.437,12560.94
703.919,12582.53
704.401,12611.53
704.883,12667.82
705.365,12729.24
705.847,12746.3
706.33,12691.36
706.812,12642.4
707.294,12613.46
707.776,12603.9
708.258,12622.66
708.74,12670.87
709.222,12701.09
709.705,12665.96
710.187,12604.6
710.669,12597.78
711.151,12639.36
711.633,12678.54
712.115,12679.64
712.597,12668.82
713.079,12664.97
713.561,12671.38
714.044,12675.34
714.526,12663.15
715.008,12657.02
715.49,12672.19
715.972,12718.09
716.454,12752.8
716.936,12774.43
717.418,12789.42
717.901,12802.1
718.383,12813.66
718.865,12834.05
719.347,12868.1
719.829,12900.41
720.311,12917.28
720.793,12920.08
721.275,12909.97
721.757,12859.69
722.24,12829.15
722.722,12855.29
723.204,12914.88
723.686,12950.84
724.168,12925.83
724.65,12892.91
725.132,12952.589
725.614,12989.79
726.096,13005.721
726.579,12936.682
727.061,12977.365
727.543,12974.075
728.025,12992.56
728.507,12992.54
728.989,13014.78
729.471,13037.02
729.953,13054.96
730.435,13061.65
730.918,13045.43
731.4,13003.45
731.882,12976.75
732.364,12985.15
732.846,12998.66
733.328,13000.43
733.81,12984.88
734.292,12990.77
734.775,13022.54
735.257,13061.36
735.739,13091.25
736.221,13113.0
736.703,13129.79
737.185,13142.28
737.667,13147.6
738.149,13139.15
738.631,13123.66
739.114,13108.36
739.596,13086.53
740.078,13081.18
740.56,13119.86
741.042,13170.71
741.524,13186.35
742.006,13141.28
742.489,13122.74
742.971,13148.93
743.453,13199.92
743.935,13235.69
744.417,13257.86
744.899,13288.7
745.381,13345.6
745.863,13401.8
746.345,13414.74
746.828,13397.43
747.31,13387.44
747.792,13412.42
748.274,13436.64
748.756,13442.3
749.238,13431.68
749.72,13423.5
750.202,13417.9
750.684,13417.77
751.167,13432.56
751.649,13456.65
752.131,13432.333
752.613,13494.422
753.095,13535.535
753.577,13556.803
754.059,13498.782
754.541,13543.145
755.023,13546.477
755.506,13548.126
755.988,13606.899
756.47,13560.407
756.952,13618.281
757.434,13634.489
757.916,13669.767
758.398,13663.757
758.88,13670.498
759.362,13718.54
759.845,13743.718
760.327,13732.953
760.809,13769.442
761.291,13721.509
761.773,13747.654
762.255,13805.766
762.737,13797.083
763.219,13797.07
763.702,13849.43
764.184,13915.72
764.666,13983.79
765.148,14041.04
765.63,14067.73
766.112,14109.14
766.594,14175.41
767.076,14249.55
767.558,14307.65
768.041,14344.33
768.523,14395.61
769.005,14466.7
769.487,14553.8
769.969,14668.6
770.451,14794.82
770.933,14887.18
771.416,14901.47
771.898,14918.93
772.38,15000.69
772.862,15123.59
773.344,15243.66
773.826,15371.35
774.308,15466.53
774.79,15509.07
775.272,15521.21
775.755,15562.55
776.237,15638.61
776.719,15710.13
777.201,15767.16
777.683,15809.95
778.165,15838.64
778.647,15853.17
779.129,15851.87
779.612,15816.72
780.094,15780.47
780.576,15768.27
781.058,15774.85
781.54,15773.93
782.022,15765.81
782.504,15740.6
782.986,15682.44
783.468,15599.98
783.951,15576.76
784.433,15622.63
784.915,15653.29
785.397,15604.55
785.879,15512.87
786.361,15464.25
786.843,15453.4
787.325,15438.23
787.807,15375.08
788.29,15314.09
788.772,15299.08
789.254,15335.21
789.736,15343.26
790.218,15301.12
790.7,15247.79
791.182,15195.2
791.664,15143.48
792.146,15111.05
792.629,15099.49
793.111,15093.8
793.593,15082.51
794.075,15068.73
794.557,15060.84
795.039,15058.97
795.521,15049.77
796.003,15014.66
796.485,14977.09
796.968,14956.37
797.45,14961.63
797.932,14953.2
798.414,14920.69
798.896,14889.15
799.378,14882.53
799.86,14901.66
800.343,14885.22
800.825,14828.56
801.307,14772.57
801.789,14762.68
802.271,14774.08
802.753,14766.75
803.235,14731.44
803.717,14704.55
804.199,14674.587
804.682,14698.866
805.164,14709.979
805.646,14708.631
806.128,14657.508
806.61,14670.66
807.092,14658.054
807.574,14658.2
808.056,14660.33
808.539,14642.46
809.021,14594.76
809.503,14555.91
809.985,14572.12
810.467,14613.92
810.949,14644.66
811.431,14652.23
811.913,14662.72
812.395,14695.94
812.878,14726.48
813.36,14731.66
813.842,14702.38
814.324,14676.51
814.806,14655.27
815.288,14638.42
815.77,14623.48
816.252,14612.73
816.734,14616.54
817.217,14640.23
817.699,14660.36
818.181,14656.02
818.663,14639.92
819.145,14625.31
819.627,14614.21
820.109,14607.14
820.591,14601.95
821.073,14602.99
821.556,14619.54
822.038,14654.91
822.52,14671.59
823.002,14664.93
823.484,14644.18
823.966,14615.1
824.448,14581.36
824.93,14546.39
825.413,14501.56
825.895,14483.21
826.377,14534.06
826.859,14608.14
827.341,14652.24
827.823,14648.64
828.305,14646.37
828.787,14645.61
829.269,14646.53
829.752,14654.28
830.234,14666.3
830.716,14658.69
831.198,14624.08
831.68,14589.29
832.162,14582.7
832.644,14590.62
833.127,14594.6
833.609,14582.67
834.091,14583.97
834.573,14556.062
835.055,14597.363
835.537,14621.864
836.019,14630.47
836.501,14575.563
836.983,14602.668
837.466,14596.907
837.948,14589.798
838.43,14628.444
838.912,14613.28
839.394,14615.37
839.876,14631.77
840.358,14617.23
840.84,14595.63
841.322,14591.79
841.805,14626.39
842.287,14645.01
842.769,14643.93
843.251,14632.21
843.733,14610.31
844.215,14580.84
844.697,14583.25
845.179,14625.06
845.661,14670.57
846.144,14687.16
846.626,14685.85
847.108,14677.0
847.59,14658.13
848.072,14647.3
848.554,14647.3
849.036,14658.97
849.518,14688.31
850.0,14747.11
850.483,14768.49
850.965,14745.24
851.447,14714.25
851.929,14714.46
852.411,14732.76
852.893,14739.67
853.375,14731.43
853.857,14719.9
854.34,14707.39
854.822,14698.02
855.304,14693.39
855.786,14690.65
856.268,14710.01
856.75,14769.26
857.232,14818.62
857.714,14808.34
858.196,14749.01
858.679,14728.65
859.161,14749.41
859.643,14788.31
860.125,14851.31
860.607,14908.12
861.089,14916.7
861.571,14868.94
862.054,14845.76
862.536,14899.86
863.018,14946.77
863.5,14942.32
863.982,14886.25
864.464,14869.16
864.946,14894.54
865.428,14925.65
865.91,14937.55
866.393,14939.02
866.875,14946.29
867.357,14958.09
867.839,14959.77
868.321,14913.91
868.803,14884.65
869.285,14922.83
869.767,15017.99
870.25,15072.15
870.732,15080.18
871.214,15065.57
871.696,15029.73
872.178,14983.43
872.66,14953.94
873.142,14941.88
873.624,14951.24
874.106,15001.28
874.589,15057.41
875.071,15108.61
875.553,15149.28
876.035,15152.81
876.517,15082.1
876.999,15043.33
877.481,15076.04
877.963,15147.79
878.445,15162.72
878.928,15126.29
879.41,15085.55
879.892,15045.2
880.374,15027.4
880.856,15081.22
881.338,15169.62
881.82,15216.94
882.302,15149.55
882.784,15107.66
883.267,15124.93
883.749,15170.58
884.231,15185.15
884.713,15167.48
885.195,15151.14
885.677,15113.407
886.159,15194.612
886.641,15246.946
887.123,15271.96
887.606,15187.836
888.088,15244.644
888.57,15244.97
889.052,15273.26
889.534,15297.81
890.016,15307.75
890.498,15296.19
890.981,15305.39
891.463,15341.29
891.945,15387.79
892.427,15443.49
892.909,15493.56
893.391,15497.08
893.873,15438.67
894.355,15396.91
894.837,15430.11
895.32,15483.23
895.802,15511.37
896.284,15505.13
896.766,15518.34
897.248,15558.46
897.73,15594.34
898.212,15600.37
898.694,15583.6
899.177,15561.08
899.659,15534.36
900.141,15514.84
900.623,15519.97
901.105,15526.76
901.587,15517.4
902.069,15491.23
902.551,15474.35
903.033,15457.93
903.516,15474.95
903.998,15462.286
904.48,15480.023
904.962,15490.382
905.444,15493.757
905.926,15469.232
906.408,15480.733
906.89,15477.798
907.372,15482.01
907.855,15469.75
908.337,15479.28
908.819,15533.88
909.301,15571.94
909.783,15579.63
910.265,15568.01
910.747,15562.33
911.229,15560.49
911.711,15544.72
912.194,15499.22
912.676,15462.62
913.158,15475.81
913.64,15518.08
914.122,15559.91
914.604,15608.82
915.086,15634.51
915.568,15627.9
916.05,15608.25
916.533,15583.17
917.015,15556.58
917.497,15521.046
917.979,15608.303
918.461,15665.752
918.943,15694.995
919.425,15611.564
919.907,15673.631
920.39,15677.388
920.872,15678.754
921.354,15761.301
921.836,15694.252
922.318,15775.518
922.8,15797.573
923.282,15805.91
923.764,15810.3
924.247,15812.07
924.729,15810.07
925.211,15817.14
925.693,15815.21
926.175,15821.37
926.657,15788.759
927.139,15865.317
927.621,15915.377
928.104,15940.359
928.586,15865.151
929.068,15919.316
929.55,15921.641
930.032,15921.832
930.514,15994.206
930.996,15933.572
931.478,15997.72
931.96,16008.25
932.443,16015.83
932.925,15972.06
933.407,15952.63
933.889,15975.77
934.371,16014.35
934.853,16030.72
935.335,16025.56
935.817,16040.98
936.299,16086.32
936.782,16126.88
937.264,16123.83
937.746,16099.63
938.228,16076.86
938.71,16056.85
939.192,16049.46
939.674,16058.36
940.156,16077.2
940.638,16110.31
941.121,16155.52
941.603,16157.66
942.085,16117.53
942.567,16088.66
943.049,16125.14
943.531,16177.11
944.013,16195.82
944.495,16184.98
944.978,16177.52
945.46,16184.14
945.942,16190.34
946.424,16194.38
946.906,16195.18
947.388,16184.3
947.87,16163.99
948.352,16158.39
948.834,16181.25
949.317,16210.64
949.799,16226.92
950.281,16236.5
950.763,16248.71
951.245,16270.21
951.727,16287.74
952.209,16300.56
952.692,16309.37
953.174,16310.01
953.656,16305.21
954.138,16316.92
954.62,16347.67
955.102,16381.41
955.584,16406.189
956.066,16427.4
956.548,16456.23
957.031,16496.74
957.513,16495.02
957.995,16416.24
958.477,16365.23
958.959,16409.82
959.441,16516.1
959.923,16553.619
960.405,16533.01
960.888,16508.061
961.37,16491.391
961.852,16495.18
962.334,16537.42
962.816,16605.18
963.298,16665.141
963.78,16727.01
964.262,16748.721
964.744,16709.939
965.227,16656.91
965.709,16653.221
966.191,16693.131
966.673,16736.74
967.155,16741.9
967.637,16709.797
968.119,16750.213
968.601,16773.025
969.083,16779.18
969.566,16718.785
970.048,16744.326
970.53,16743.369
971.012,16765.881
971.494,16752.02
971.976,16722.09
972.458,16719.859
972.94,16740.82
973.422,16751.41
973.905,16717.93
974.387,16761.236
974.869,16785.904
975.351,16792.934
975.833,16729.498
976.315,16757.053
976.797,16748.145
977.279,16737.738
977.761,16778.102
978.244,16724.914
978.726,16764.473
979.208,16767.008
979.69,16786.486
980.172,16769.275
980.654,16763.396
981.136,16794.221
981.619,16763.9
982.101,16799.82
982.583,16795.461
983.065,16747.141
983.547,16707.928
984.029,16757.85
984.511,16786.135
984.993,16793.945
985.475,16719.961
985.958,16751.598
986.44,16740.906
986.922,16728.48
987.404,16774.984
987.886,16712.896
988.368,16758.465
988.85,16753.189
989.332,16742.24
989.815,16751.939
990.297,16766.789
990.779,16782.391
991.261,16795.199
991.743,16798.58
992.225,16780.74
992.707,16790.859
993.189,16839.039
993.671,16884.42
994.154,16878.311
994.636,16843.391
995.118,16825.949
995.6,16829.07
996.082,16834.949
996.564,16836.01
997.046,16837.26
997.528,16843.311
998.01,16851.711
998.493,16844.84
998.975,16821.08
999.457,16809.279
999.939,16819.34
1000.421,16847.869
1000.903,16905.92
1001.385,16975.57
1001.867,17027.221
1002.349,17050.881
1002.832,17053.439
1003.314,17022.07
1003.796,16988.6
1004.278,16994.52
1004.76,17032.09
1005.242,17030.881
1005.724,16986.5
1006.206,16959.141
1006.689,17029.039
1007.171,17103.18
1007.653,17097.48
1008.135,17011.73
1008.617,16979.811
1009.099,17016.67
1009.581,17068.029
1010.063,17122.51
1010.545,17171.91
1011.028,17201.67
1011.51,17211.68
1011.992,17199.9
1012.474,17141.789
1012.956,17102.26
1013.438,17119.391
1013.92,17156.141
1014.402,17176.461
1014.885,17176.711
1015.367,17190.891
1015.849,17220.801
1016.331,17252.24
1016.813,17271.17
1017.295,17286.35
1017.777,17314.01
1018.259,17351.92
1018.741,17366.221
1019.224,17319.57
1019.706,17299.17
1020.188,17336.119
1020.67,17405.211
1021.152,17453.051
1021.634,17479.32
1022.116,17478.211
1022.598,17434.73
1023.081,17395.881
1023.563,17391.039
1024.045,17406.25
1024.527,17427.43
1025.009,17454.27
1025.491,17484.43
1025.973,17519.789
1026.455,17547.83
1026.938,17550.131
1027.42,17542.33
1027.902,17554.58
1028.384,17582.26
1028.866,17597.939
1029.348,17579.539
1029.83,17561.391
1030.312,17550.369
1030.794,17547.42
1031.276,17503.613
1031.759,17576.91
1032.241,17621.768
1032.723,17639.73
1033.205,17550.246
1033.687,17599.51
1034.169,17593.166
1034.651,17584.547
1035.133,17653.336
1035.616,17579.496
1036.098,17647.059
1036.58,17647.83
1037.062,17693.461
1037.544,17739.811
1038.026,17742.539
1038.508,17715.631
1038.99,17707.869
1039.473,17753.58
1039.955,17805.529
1040.437,17870.68
1040.919,17920.461
1041.401,17896.471
1041.883,17798.859
1042.365,17751.85
1042.847,17773.699
1043.329,17819.41
1043.812,17861.48
1044.294,17899.359
1044.776,17933.461
1045.258,17963.789
1045.74,17983.971
1046.222,17993.74
1046.704,17993.6
1047.186,17977.57
1047.668,17958.07
1048.151,17965.82
1048.633,17993.08
1049.115,18019.76
1049.597,18034.24
1050.079,18052.68
1050.561,18089.34
1051.043,18125.561
1051.525,18132.311
1052.008,18104.08
1052.49,18068.754
1052.972,18150.564
1053.454,18203.938
1053.936,18230.41
1054.418,18149.389
1054.9,18207.172
1055.382,18209.326
1055.865,18209.238
1056.347,18286.557
1056.829,18221.172
1057.311,18297.262
1057.793,18316.873
1058.275,18362.338
1058.757,18351.828
1059.239,18358.611
1059.721,18421.375
1060.203,18453.143
1060.686,18436.23
1061.168,18483.332
1061.65,18415.994
1062.132,18449.08
1062.614,18475.25
1063.096,18509.92
1063.578,18580.631
1064.06,18535.154
1064.543,18624.113
1065.025,18680.422
1065.507,18705.852
1065.989,18607.939
1066.471,18669.299
1066.953,18666.832
1067.435,18661.748
1067.917,18745.523
1068.4,18665.582
1068.882,18747.949
1069.364,18765.516
1069.846,18812.738
1070.328,18795.74
1070.81,18798.578
1071.292,18865.658
1071.774,18897.17
1072.256,18872.775
1072.739,18921.916
1073.221,18868.98
1073.703,18887.25
1074.185,18926.98
1074.667,18969.68
1075.149,19019.439
1075.631,19054.039
1076.113,19044.41
1076.596,18982.051
1077.078,18954.76
1077.56,18969.029
1078.042,18975.26
1078.524,18912.35
1079.006,18845.811
1079.488,18886.551
1079.97,18992.08
1080.453,19050.73
1080.935,18993.5
1081.417,18940.83
1081.899,18893.4
1082.381,18868.74
1082.863,18908.699
1083.345,18986.369
1083.827,19012.461
1084.309,18979.16
1084.792,18940.24
1085.274,18902.051
1085.756,18888.65
1086.238,18922.27
1086.72,18983.881
1087.202,19005.561
1087.684,18988.301
1088.166,18975.699
1088.648,18981.779
1089.131,18991.971
1089.613,18981.15
1090.095,18974.529
1090.577,18916.465
1091.059,18978.98
1091.541,19012.227
1092.023,19017.777
1092.505,18912.676
1092.988,18950.447
1093.47,18930.969
1093.952,18909.141
1094.434,18967.033
1094.916,18878.025
1095.398,18934.654
1095.88,18922.5
1096.362,18928.711
1096.844,18931.961
1097.327,18936.801
1097.809,18943.5
1098.291,18956.15
1098.773,18974.311
1099.255,18987.561
1099.737,18994.59
1100.219,18989.91
1100.701,18963.59
1101.183,18926.539
1101.666,18903.949
1102.148,18896.199
1102.63,18912.16
1103.112,18963.109
1103.594,18999.471
1104.076,18946.85
1104.558,18874.619
1105.04,18855.311
1105.523,18903.34
1106.005,18934.25
1106.487,18944.529
1106.969,18951.92
1107.451,18966.68
1107.933,18980.949
1108.415,18980.33
1108.897,18970.68
1109.38,18963.43
1109.862,18965.689
1110.344,18964.301
1110.826,18954.85
1111.308,18949.1
1111.79,18962.881
1112.272,18988.391
1112.754,18996.131
1113.236,18987.9
1113.719,18977.391
1114.201,18964.051
1114.683,18959.42
1115.165,18983.84
1115.647,19006.891
1116.129,18959.939
1116.611,18850.85
1117.093,18822.68
1117.575,18897.32
1118.058,18983.77
1118.54,19030.18
1119.022,19047.76
1119.504,19038.471
1119.986,19006.67
1120.468,18966.15
1120.95,18913.119
1121.432,18888.77
1121.915,18912.029
1122.397,18950.949
1122.879,18974.109
1123.361,18988.23
1123.843,19000.551
1124.325,19011.061
1124.807,19027.16
1125.289,19050.82
1125.771,19074.859
1126.254,19094.211
1126.736,19112.289
1127.218,19139.551
1127.7,19170.881
1128.182,19193.811
1128.664,19207.949
1129.146,19201.449
1129.628,19147.711
1130.11,19112.65
1130.593,19180.23
1131.075,19136.748
1131.557,19212.598
1132.039,19259.479
1132.521,19278.951
1133.003,19188.92
1133.485,19240.289
1133.967,19234.992
1134.45,19227.391
1134.932,19267.461
1135.414,19287.131
1135.896,19310.949
1136.378,19334.24
1136.86,19340.301
1137.342,19293.93
1137.824,19247.82
1138.307,19239.439
1138.789,19262.91
1139.271,19298.539
1139.753,19346.66
1140.235,19386.16
1140.717,19388.369
1141.199,19319.033
1141.681,19393.398
1142.163,19432.883
1142.646,19439.348
1143.128,19313.951
1143.61,19358.84
1144.092,19335.486
1144.574,19309.336
1145.056,19378.189
1145.538,19335.311
1146.02,19350.82
1146.502,19370.09
1146.985,19387.98
1147.467,19417.85
1147.949,19409.461
1148.431,19341.76
1148.913,19291.77
1149.395,19343.211
1149.877,19440.9
1150.359,19450.369
1150.842,19397.74
1151.324,19370.449
1151.806,19425.109
1152.288,19470.41
1152.77,19491.279
1153.252,19501.789
1153.734,19500.699
1154.216,19445.096
1154.698,19535.744
1155.181,19590.91
1155.663,19612.463
1156.145,19499.809
1156.627,19560.455
1157.109,19551.65
1157.591,19577.23
1158.073,19569.91
1158.555,19621.09
1159.037,19629.41
1159.52,19571.34
1160.002,19522.289
1160.484,19602.773
1160.966,19651.812
1161.448,19671.1
1161.93,19571.521
1162.412,19625.432
1162.894,19617.832
1163.377,19607.727
1163.859,19683.242
1164.341,19600.949
1164.823,19675.107
1165.305,19686.814
1165.787,19727.102
1166.269,19705.498
1166.751,19701.381
1167.234,19724.6
1167.716,19730.42
1168.198,19685.48
1168.68,19639.779
1169.162,19648.619
1169.644,19677.58
1170.126,19675.68
1170.608,19626.279
1171.09,19630.109
1171.573,19691.779
1172.055,19755.699
1172.537,19781.27
1173.019,19794.35
1173.501,19820.17
1173.983,19853.08
1174.465,19882.67
1174.947,19906.91
1175.43,19930.381
1175.912,19954.15
1176.394,19971.07
1176.876,19965.26
1177.358,19956.24
1177.84,19918.328
1178.322,19977.926
1178.804,20013.852
1179.286,20027.383
1179.769,19951.447
1180.251,19991.041
1180.733,19984.332
1181.215,19975.723
1181.697,20031.58
1182.179,19968.645
1182.661,20023.48
1183.143,20031.303
1183.625,20060.643
1184.108,20043.402
1184.59,20040.541
1185.072,20084.287
1185.554,20102.225
1186.036,20079.611
1186.518,20110.316
1187.0,20045.756
1187.482,20064.795
1187.965,20119.912
1188.447,20099.641
1188.929,20131.199
1189.411,20143.02
1189.893,20065.127
1190.375,20105.77
1190.857,20140.061
1191.339,20155.301
1191.822,20162.619
1192.304,20156.08
1192.786,20158.32
1193.268,20186.539
1193.75,20222.449
1194.232,20204.66
1194.714,20157.779
1195.196,20150.141
1195.678,20226.18
1196.161,20271.029
1196.643,20236.141
1197.125,20203.439
1197.607,20225.59
1198.089,20282.609
1198.571,20306.02
1199.053,20305.699
1199.535,20314.67
1200.017,20362.039
1200.5,20390.08
1200.982,20373.539
1201.464,20354.381
1201.946,20370.631
1202.428,20411.01
1202.91,20417.83
1203.392,20399.4
1203.874,20387.631
1204.357,20412.85
1204.839,20422.93
1205.321,20392.23
1205.803,20362.41
1206.285,20380.051
1206.767,20433.471
1207.249,20467.961
1207.731,20485.0
1208.214,20501.77
1208.696,20529.27
1209.178,20553.971
1209.66,20572.779
1210.142,20587.58
1210.624,20599.18
1211.106,20608.75
1211.588,20626.68
1212.07,20651.131
1212.552,20658.539
1213.035,20608.98
1213.517,20577.699
1213.999,20588.07
1214.481,20622.359
1214.963,20660.83
1215.445,20700.119
1215.927,20727.891
1216.409,20742.73
1216.892,20744.141
1217.374,20712.811
1217.856,20693.75
1218.338,20708.18
1218.82,20734.381
1219.302,20719.039
1219.784,20680.859
1220.266,20695.119
1220.749,20776.32
1221.231,20823.961
1221.713,20763.551
1222.195,20697.25
1222.677,20650.18
1223.159,20628.48
1223.641,20661.131
1224.123,20729.381
1224.605,20775.25
1225.088,20784.01
1225.57,20794.93
1226.052,20831.119
1226.534,20861.289
1227.016,20872.631
1227.498,20872.631
1227.98,20881.15
1228.462,20893.48
1228.944,20893.67
1229.427,20872.43
1229.909,20867.9
1230.391,20907.529
1230.873,20942.75
1231.355,20948.051
1231.837,20940.801
1232.319,20975.49
1232.801,21031.93
1233.284,21060.01
1233.766,21040.23
1234.248,21009.65
1234.73,20947.99
1235.212,20927.051
1235.694,20999.811
1236.176,21121.369
1236.658,21194.199
1237.141,21229.17
1237.623,21251.061
1238.105,21270.26
1238.587,21261.08
1239.069,21205.24
1239.551,21158.33
1240.033,21154.9
1240.515,21179.26
1240.997,21215.93
1241.479,21251.279
1241.962,21254.699
1242.444,21197.68
1242.926,21150.631
1243.408,21115.65
1243.89,21098.08
1244.372,21101.18
1244.854,21124.66
1245.336,21185.619
1245.819,21262.01
1246.301,21308.619
1246.783,21286.359
1247.265,21289.789
1247.747,21327.42
1248.229,21355.17
1248.711,21332.189
1249.193,21288.1
1249.676,21255.881
1250.158,21236.82
1250.64,21236.721
1251.122,21263.0
1251.604,21293.77
1252.086,21333.051
1252.568,21358.32
1253.05,21335.15
1253.532,21306.311
1254.015,21332.051
1254.497,21383.24
1254.979,21395.42
1255.461,21350.789
1255.943,21325.4
1256.425,21320.73
1256.907,21336.881
