Raman Shift,Intensity
114.254,1999.0
115.644,2019.541
117.034,2092.0
118.424,2066.0
119.813,2064.0
121.203,2062.0
122.592,2012.0
123.981,2057.0
125.369,2048.0
126.758,2069.0
128.146,2100.0
129.534,2064.0
130.922,2117.0
132.309,2075.0
133.696,2106.0
135.083,2086.0
136.47,2140.0
137.857,2145.0
139.243,2177.0
140.63,2167.0
142.016,2205.0
143.401,2204.0
144.787,2211.0
146.172,2205.0
147.557,2182.0
148.942,2188.0
150.327,2184.0
151.711,2189.0
153.096,2173.0
154.48,2184.0
155.863,2181.247
157.247,2178.0
158.63,2188.0
160.013,2206.0
161.396,2217.0
162.779,2186.0
164.161,2215.0
165.544,2199.0
166.926,2216.0
168.308,2210.0
169.689,2247.0
171.07,2252.0
172.452,2323.0
173.833,2259.0
175.213,2275.0
176.594,2279.0
177.974,2230.0
179.354,2320.0
180.734,2309.0
182.114,2315.0
183.493,2351.0
184.872,2312.0
186.251,2345.0
187.63,2368.0
189.008,2334.0
190.387,2339.0
191.765,2378.0
193.143,2450.0
194.52,2417.0
195.898,2384.0
197.275,2473.0
198.652,2460.0
200.029,2480.0
201.405,2534.0
202.782,2622.0
204.158,2715.0
205.534,2971.0
206.909,3329.0
208.285,3718.0
209.66,4400.0
211.035,5224.0
212.41,5782.0
213.784,5881.0
215.159,5184.0
216.533,4283.0
217.907,3637.0
219.281,3224.0
220.654,2948.0
222.027,2729.0
223.4,2728.0
224.773,2627.0
226.146,2658.0
227.518,2630.0
228.891,2624.0
230.263,2593.0
231.634,2609.0
233.006,2564.0
234.377,2593.0
235.748,2596.0
237.119,2622.0
238.49,2624.0
239.86,2643.0
241.231,2639.985
242.601,2653.0
243.97,2635.0
245.34,2644.0
246.709,2655.0
248.079,2655.0
249.448,2676.0
250.816,2679.597
252.185,2688.473
253.553,2701.0
254.921,2702.0
256.289,2723.0
257.657,2726.0
259.024,2732.0
260.391,2784.0
261.758,2794.0
263.125,2806.0
264.492,2764.0
265.858,2817.0
267.224,2793.0
268.59,2833.0
269.956,2824.0
271.321,2849.0
272.687,2839.0
274.052,2867.0
275.416,2866.0
276.781,2850.0
278.146,2865.0
279.51,2904.0
280.874,2889.0
282.237,2895.0
283.601,2963.0
284.964,2930.0
286.327,2966.0
287.69,3016.0
289.053,2942.0
290.416,3047.0
291.778,2976.0
293.14,3027.0
294.502,3059.0
295.863,3068.0
297.225,3107.0
298.586,3112.704
299.947,3072.0
301.308,3127.0
302.668,3119.0
304.029,3118.0
305.389,3200.0
306.749,3191.0
308.108,3221.0
309.468,3258.0
310.827,3309.0
312.186,3361.0
313.545,3363.0
314.903,3420.0
316.262,3541.0
317.62,3650.0
318.978,3865.0
320.336,4146.0
321.693,4649.0
323.051,5556.0
324.408,7165.0
325.765,9040.0
327.121,11974.0
328.478,15422.0
329.834,19185.0
331.19,20879.0
332.546,18254.0
333.902,13140.0
335.257,9682.0
336.612,7322.0
337.967,6066.0
339.322,4998.0
340.677,4546.0
342.031,4295.0
343.385,4084.0
344.739,3886.0
346.093,3848.0
347.446,3764.0
348.799,3745.0
350.153,3673.0
351.505,3679.0
352.858,3645.0
354.21,3630.931
355.563,3633.0
356.915,3629.0
358.267,3599.0
359.618,3615.0
360.969,3604.0
362.321,3615.081
363.672,3650.0
365.022,3634.0
366.373,3658.0
367.723,3641.0
369.073,3671.0
370.423,3620.0
371.773,3633.0
373.122,3633.0
374.471,3676.0
375.821,3764.0
377.169,3703.0
378.518,3805.0
379.866,3670.0
381.215,3726.0
382.563,3799.0
383.91,3745.0
385.258,3726.0
386.605,3745.0
387.952,3766.0
389.299,3751.0
390.646,3828.0
391.992,3794.0
393.339,3809.0
394.685,3815.0
396.031,3868.0
397.376,3854.0
398.722,3838.0
400.067,3822.0
401.412,3867.0
402.757,3927.0
404.101,3873.0
405.446,3876.0
406.79,3867.0
408.134,3942.0
409.478,3919.0
410.821,3965.0
412.165,4011.0
413.508,3960.0
414.851,3991.0
416.193,3981.0
417.536,3984.0
418.878,3999.0
420.22,4020.0
421.562,4005.0
422.904,4033.0
424.245,4033.0
425.586,4113.0
426.927,4064.0
428.268,4143.0
429.609,4135.0
430.949,4084.0
432.289,4169.0
433.629,4160.0
434.969,4194.0
436.309,4177.0
437.648,4122.0
438.987,4159.941
440.326,4149.356
441.665,4193.0
443.003,4194.0
444.342,4221.0
445.68,4268.0
447.018,4256.0
448.355,4278.0
449.693,4293.0
451.03,4311.0
452.367,4273.0
453.704,4334.0
455.041,4340.0
456.377,4407.0
457.713,4360.0
459.049,4370.0
460.385,4348.0
461.721,4352.0
463.056,4396.0
464.391,4422.0
465.726,4409.0
467.061,4513.0
468.395,4450.0
469.73,4446.0
471.064,4529.0
472.398,4417.0
473.731,4545.0
475.065,4477.0
476.398,4497.0
477.731,4522.0
479.064,4593.0
480.397,4554.0
481.729,4618.0
483.062,4627.0
484.394,4649.0
485.725,4707.0
487.057,4675.0
488.389,4675.0
489.72,4638.0
491.051,4643.0
492.382,4740.0
493.712,4723.0
495.043,4727.0
496.373,4747.0
497.703,4752.0
499.032,4795.0
500.362,4845.0
501.691,4876.0
503.02,4869.0
504.349,4894.02
505.678,4873.0
507.007,4904.0
508.335,4922.0
509.663,4933.0
510.991,4942.0
512.319,4958.0
513.646,4972.0
514.973,5066.0
516.3,5007.0
517.627,5028.0
518.954,5091.0
520.28,5016.0
521.607,5085.0
522.933,5012.0
524.259,5059.0
525.584,5124.0
526.91,5036.0
528.235,5167.0
529.56,5115.0
530.885,5205.0
532.209,5146.0
533.534,5167.0
534.858,5265.0
536.182,5166.0
537.506,5246.0
538.829,5270.0
540.152,5282.0
541.476,5238.0
542.799,5334.0
544.121,5233.0
545.444,5332.0
546.766,5360.0
548.088,5329.0
549.41,5405.0
550.732,5382.0
552.053,5428.0
553.375,5442.0
554.696,5386.0
556.017,5464.0
557.337,5452.0
558.658,5495.0
559.978,5511.0
561.298,5509.0
562.618,5528.719
563.938,5526.85
565.257,5538.0
566.576,5541.0
567.895,5546.0
569.214,5583.0
570.533,5635.0
571.851,5662.0
573.17,5652.0
574.488,5716.0
575.805,5682.0
577.123,5735.0
578.44,5719.0
579.758,5739.0
581.075,5792.0
582.391,5724.0
583.708,5849.0
585.024,5824.0
586.341,5833.0
587.657,5865.0
588.972,5851.872
590.288,5945.0
591.603,5854.0
592.918,5907.0
594.233,5900.0
595.548,5984.0
596.863,6019.0
598.177,5999.0
599.491,6032.0
600.805,6075.0
602.119,6076.0
603.432,6121.874
604.746,6144.375
606.059,6165.0
607.372,6185.0
608.685,6152.0
609.997,6135.0
611.309,6158.0
612.621,6178.0
613.933,6161.0
615.245,6306.0
616.557,6205.0
617.868,6289.0
619.179,6258.0
620.49,6295.0
621.801,6262.0
623.111,6409.0
624.421,6302.0
625.731,6408.0
627.041,6397.0
628.351,6416.0
629.66,6466.0
630.97,6444.0
632.279,6541.0
633.588,6471.0
634.896,6518.0
636.205,6581.0
637.513,6598.0
638.821,6610.664
640.129,6572.0
641.437,6597.0
642.744,6594.721
644.051,6582.0
645.358,6664.0
646.665,6707.0
647.972,6811.0
649.278,6705.0
650.584,6778.0
651.89,6711.0
653.196,6795.0
654.502,6842.0
655.807,6888.0
657.113,6924.468
658.418,6914.0
659.722,6966.0
661.027,6886.0
662.331,6891.0
663.636,6947.0
664.94,7017.0
666.244,7009.0
667.547,7094.0
668.851,7073.0
670.154,7118.0
671.457,7156.904
672.76,7152.0
674.062,7187.0
675.365,7209.0
676.667,7214.283
677.969,7223.0
679.271,7234.0
680.572,7291.0
681.874,7304.18
683.175,7323.0
684.476,7301.0
685.777,7365.0
687.077,7341.0
688.378,7297.0
689.678,7529.0
690.978,7481.0
692.278,7507.0
693.577,7305.0
694.877,7560.0
696.176,7425.0
697.475,7652.0
698.774,7573.0
700.072,7656.0
701.371,7631.0
702.669,7630.0
703.967,7523.0
705.265,7758.0
706.562,7833.0
707.86,7789.0
709.157,7751.0
710.454,7898.0
711.751,7811.0
713.047,7956.0
714.344,7974.0
715.64,8014.0
716.936,8015.0
718.232,8090.0
719.527,8284.0
720.823,8264.0
722.118,8383.0
723.413,8480.0
724.708,8530.0
726.002,8589.0
727.297,8840.0
728.591,8867.0
729.885,9163.0
731.179,9450.0
732.472,9583.0
733.766,9815.0
735.059,10018.0
736.352,10283.0
737.645,10522.0
738.937,10683.0
740.23,10750.0
741.522,10421.0
742.814,10386.0
744.106,10156.0
745.397,9908.0
746.689,9542.0
747.98,9362.0
749.271,9329.0
750.562,9078.0
751.853,9140.0
753.143,8821.0
754.433,8733.0
755.723,8755.0
757.013,8619.0
758.303,8692.0
759.592,8635.0
760.881,8662.0
762.17,8648.0
763.459,8733.0
764.748,8681.0
766.036,8543.0
767.325,8815.0
768.613,8626.0
769.901,8704.0
771.188,8723.0
772.476,8649.0
773.763,8827.0
775.05,8713.0
776.337,8850.0
777.624,8735.0
778.91,8748.0
780.196,8800.0
781.482,8866.0
782.768,8761.0
784.054,8832.0
785.339,8879.0
786.625,8949.0
787.91,8871.0
789.195,9072.0
790.479,8926.0
791.764,8960.0
793.048,9115.0
794.332,9000.0
795.616,8991.0
796.9,9103.0
798.183,9121.0
799.467,9057.0
800.75,9165.0
802.033,9108.0
803.316,9122.0
804.598,9366.0
805.88,9074.0
807.163,9324.0
808.445,9309.0
809.726,9244.0
811.008,9374.0
812.289,9360.0
813.57,9446.0
814.851,9482.0
816.132,9421.0
817.413,9396.0
818.693,9405.0
819.973,9490.0
821.253,9458.0
822.533,9483.0
823.813,9616.0
825.092,9564.0
826.371,9513.0
827.65,9591.0
828.929,9580.0
830.208,9795.0
831.486,9671.0
832.764,9512.0
834.042,9715.0
835.32,9721.0
836.598,9771.0
837.875,9880.0
839.152,9830.0
840.429,9770.0
841.706,9894.0
842.983,9801.0
844.259,9888.0
845.536,9996.0
846.812,9865.0
848.088,9967.0
849.363,9934.0
850.639,9992.0
851.914,10076.0
853.189,10039.0
854.464,10054.0
855.739,10164.0
857.013,10214.0
858.288,10143.0
859.562,10187.0
860.836,10270.0
862.11,10227.0
863.383,10169.0
864.656,10325.0
865.93,10225.0
867.203,10308.0
868.475,10327.0
869.748,10391.0
871.02,10358.0
872.292,10401.0
873.564,10439.0
874.836,10493.0
876.108,10486.0
877.379,10460.0
878.65,10497.527
879.922,10519.0
881.192,10516.0
882.463,10613.0
883.733,10601.0
885.004,10585.0
886.274,10561.0
887.544,10642.0
888.813,10768.0
890.083,10651.0
891.352,10776.0
892.621,10852.0
893.89,10760.0
895.159,10782.0
896.427,10797.0
897.695,10764.0
898.964,10806.633
900.232,10992.0
901.499,10867.0
902.767,10929.0
904.034,10980.0
905.301,10877.0
906.568,11082.0
907.835,11218.0
909.102,11132.0
910.368,11050.0
911.634,11095.0
912.9,11182.0
914.166,11144.0
915.432,11194.0
916.697,11200.0
917.962,11217.282
919.227,11250.877
920.492,11266.0
921.757,11286.0
923.021,11302.0
924.285,11280.0
925.55,11452.0
926.813,11441.0
928.077,11381.0
929.341,11496.0
930.604,11465.0
931.867,11542.0
933.13,11473.0
934.393,11588.0
935.655,11616.0
936.918,11576.0
938.18,11815.0
939.442,11627.0
940.703,11636.0
941.965,11756.0
943.226,11682.0
944.488,11718.0
945.749,11713.0
947.009,11751.0
948.27,11840.0
949.53,11755.0
950.791,11881.0
952.051,12032.0
953.311,11840.0
954.57,11801.0
955.83,11934.0
957.089,11958.0
958.348,12082.0
959.607,11963.0
960.866,12043.0
962.124,11958.0
963.383,11959.0
964.641,12129.0
965.899,12047.0
967.156,12202.0
968.414,12097.0
969.671,12144.0
970.928,12313.0
972.185,12124.0
973.442,12276.0
974.699,12063.0
975.955,12307.0
977.211,12206.0
978.468,12266.0
979.723,12379.0
980.979,12385.0
982.234,12257.0
983.49,12486.0
984.745,12259.0
986.0,12413.0
987.254,12518.0
988.509,12326.0
989.763,12661.0
991.017,12474.0
992.271,12586.0
993.525,12473.0
994.779,12609.0
996.032,12728.0
997.285,12593.0
998.538,12717.0
999.791,12544.0
1001.044,12785.0
1002.296,12638.0
1003.548,12794.0
1004.8,12695.0
1006.052,12759.0
1007.304,12852.0
1008.555,12884.0
1009.807,12994.0
1011.058,12917.0
1012.309,12912.0
1013.559,13031.0
1014.81,12961.0
1016.06,12936.0
1017.31,12997.0
1018.56,13075.0
1019.81,12940.0
1021.06,13038.0
1022.309,13212.0
1023.558,13138.0
1024.807,13254.0
1026.056,13243.0
1027.305,13170.0
1028.553,13226.0
1029.801,13421.0
1031.049,13330.0
1032.297,13324.0
1033.545,13265.0
1034.793,13500.0
1036.04,13418.0
1037.287,13471.0
1038.534,13548.0
1039.781,13551.0
1041.027,13654.0
1042.274,13600.0
1043.52,13654.0
1044.766,13801.0
1046.012,13839.0
1047.257,13760.0
1048.503,13726.0
1049.748,13940.0
1050.993,13898.0
1052.238,14144.0
1053.483,14162.0
1054.727,14079.0
1055.971,14145.0
1057.216,14214.711
1058.459,14354.0
1059.703,14466.0
1060.947,14476.0
1062.19,14658.0
1063.433,14766.0
1064.676,14887.0
1065.919,15057.0
1067.162,15058.0
1068.404,15532.0
1069.646,15430.0
1070.888,15739.0
1072.13,16090.0
1073.372,16273.0
1074.613,16687.0
1075.855,17232.0
1077.096,17564.0
1078.337,17965.0
1079.578,18849.0
1080.818,19468.0
1082.059,20720.0
1083.299,21888.0
1084.539,23906.0
1085.779,25973.0
1087.018,28673.0
1088.258,32678.0
1089.497,37156.0
1090.736,42521.0
1091.975,48819.0
1093.213,54829.0
1094.452,58872.0
1095.69,61514.0
1096.928,59498.0
1098.166,56075.0
1099.404,51098.0
1100.642,45718.0
1101.879,41018.0
1103.116,37232.0
1104.353,33784.0
1105.59,31260.0
1106.827,28470.0
1108.063,26698.0
1109.299,24558.0
1110.536,23223.0
1111.771,21633.0
1113.007,20463.0
1114.243,19496.0
1115.478,18624.0
1116.713,17907.0
1117.948,17234.0
1119.183,16794.0
1120.418,16310.0
1121.652,16112.0
1122.886,16000.0
1124.12,15742.0
1125.354,15642.0
1126.588,15307.0
1127.821,15389.0
1129.055,15130.0
1130.288,15266.0
1131.521,15121.0
1132.753,15116.0
1133.986,15108.0
1135.218,14981.0
1136.45,15124.0
1137.682,14943.0
1138.914,15023.0
1140.146,14943.0
1141.377,14863.0
1142.609,14813.0
1143.84,14784.0
1145.071,14796.985
1146.301,14794.0
1147.532,14864.0
1148.762,14877.0
1149.992,14886.0
1151.222,14714.0
1152.452,14816.0
1153.682,14945.0
1154.911,14729.0
1156.14,14880.0
1157.369,14922.0
1158.598,14672.0
1159.827,14874.0
1161.055,14817.0
1162.284,14848.0
1163.512,14884.0
1164.74,14819.0
1165.967,14863.0
1167.195,14770.0
1168.422,14969.0
1169.65,14950.0
1170.877,15009.0
1172.103,14887.0
1173.33,14890.0
1174.557,14987.0
1175.783,15024.0
1177.009,15148.0
1178.235,14873.0
1179.461,15021.0
1180.686,14976.0
1181.912,15018.0
1183.137,15059.0
1184.362,15074.0
1185.587,15117.236
1186.811,15163.0
1188.036,15152.0
1189.26,15137.0
1190.484,15081.0
1191.708,15062.0
1192.932,15077.991
1194.155,15043.0
1195.378,15150.0
1196.602,15168.0
1197.825,15250.0
1199.047,15116.0
1200.27,15185.0
1201.492,15140.0
1202.715,15170.157
1203.937,15144.0
1205.159,15249.0
1206.38,15311.0
1207.602,15303.0
1208.823,15361.689
1210.044,15341.0
1211.265,15397.0
1212.486,15367.0
1213.707,15379.0
1214.927,15379.548
1216.147,15436.0
1217.367,15391.0
1218.587,15411.0
1219.807,15481.0
1221.027,15399.0
1222.246,15499.0
1223.465,15448.0
1224.684,15495.0
1225.903,15529.0
1227.121,15600.0
1228.34,15533.0
1229.558,15716.0
1230.776,15680.0
1231.994,15559.0
1233.212,15561.0
1234.429,15646.0
1235.646,15693.0
1236.864,15700.0
1238.081,15781.0
1239.297,15791.0
1240.514,15718.0
1241.73,15902.0
1242.947,15691.0
1244.163,15762.0
1245.378,15779.0
1246.594,15820.0
1247.81,15730.0
1249.025,15651.0
1250.24,15903.0
1251.455,15699.0
1252.67,15822.0
1253.885,15869.0
1255.099,15785.0
1256.313,15818.0
1257.527,15842.0
1258.741,15992.0
1259.955,15932.0
1261.168,15982.017
1262.382,15952.0
1263.595,15981.0
1264.808,15944.0
1266.021,15931.0
1267.233,15914.0
1268.446,15981.0
1269.658,15976.0
1270.87,15991.485
1272.082,16036.0
1273.294,15982.0
1274.505,16007.0
1275.716,15939.0
1276.928,15954.23
1278.139,16017.0
1279.349,15981.0
1280.56,16065.0
1281.77,16117.0
1282.981,16094.0
1284.191,16094.0
1285.401,16080.0
1286.61,16118.0
1287.82,16104.0
1289.029,16218.0
1290.239,16056.0
1291.448,16257.0
1292.656,16243.0
1293.865,16180.0
1295.073,16288.0
1296.282,16225.0
1297.49,16135.0
1298.698,16219.0
1299.906,16224.0
1301.113,16212.0
1302.32,16276.0
1303.528,16334.0
1304.735,16294.0
1305.942,16189.0
1307.148,16320.0
1308.355,16371.0
1309.561,16142.0
1310.767,16330.0
1311.973,16153.0
1313.179,16324.0
1314.384,16228.0
1315.59,16409.0
1316.795,16427.0
1318.0,16327.0
1319.205,16254.0
1320.41,16433.0
1321.614,16369.0
1322.819,16448.0
1324.023,16598.0
1325.227,16430.0
1326.431,16673.0
1327.634,16556.0
1328.838,16394.0
1330.041,16535.0
1331.244,16644.0
1332.447,16656.0
1333.65,16590.0
1334.852,16562.0
1336.055,16713.0
1337.257,16630.0
1338.459,16700.0
1339.661,16759.0
1340.862,16768.0
1342.064,16681.0
1343.265,16773.0
1344.466,16692.0
1345.667,16709.0
1346.868,16722.0
1348.068,16942.0
1349.269,16849.0
1350.469,16698.0
1351.669,16941.0
1352.869,16840.0
1354.069,16822.0
1355.268,16980.0
1356.468,16729.0
1357.667,16907.0
1358.866,16986.0
1360.065,16916.0
1361.263,17080.0
1362.462,16942.0
1363.66,16930.0
1364.858,17035.0
1366.056,17063.0
1367.254,17058.0
1368.451,17130.0
1369.649,16995.0
1370.846,17114.0
1372.043,17106.0
1373.24,17053.0
1374.436,17198.0
1375.633,17210.0
1376.829,17200.0
1378.025,17028.0
1379.221,17088.0
1380.417,17183.0
1381.613,17283.0
1382.808,17282.0
1384.003,17285.0
1385.199,17340.0
1386.393,17317.0
1387.588,17272.0
1388.783,17304.643
1389.977,17297.0
1391.171,17315.0
1392.365,17313.0
1393.559,17316.0
1394.753,17334.0
1395.946,17284.0
1397.14,17350.0
1398.333,17308.0
1399.526,17384.0
1400.719,17414.844
1401.911,17500.0
1403.104,17475.0
1404.296,17422.0
1405.488,17368.0
1406.68,17457.0
1407.872,17486.0
1409.063,17446.0
1410.255,17633.0
1411.446,17420.0
1412.637,17588.0
1413.828,17370.0
1415.018,17575.0
1416.209,17573.0
1417.399,17499.0
1418.589,17463.0
1419.779,17691.0
1420.969,17520.0
1422.159,17666.0
1423.348,17630.0
1424.537,17546.0
1425.726,17657.0
1426.915,17548.0
1428.104,17710.0
1429.293,17684.0
1430.481,17673.0
1431.669,17753.0
1432.857,17669.0
1434.045,17824.0
1435.233,17675.0
1436.42,17887.0
1437.608,18050.0
1438.795,17756.0
1439.982,17888.0
1441.169,17993.0
1442.355,18067.0
1443.542,18121.0
1444.728,18347.0
1445.914,18395.0
1447.1,18698.0
1448.286,18868.0
1449.472,18812.0
1450.657,18373.0
1451.842,18567.0
1453.027,18317.0
1454.212,18301.0
1455.397,18321.0
1456.581,17990.0
1457.766,18251.0
1458.95,18182.0
1460.134,18049.0
1461.318,18183.0
1462.501,17980.0
1463.685,18300.0
1464.868,18229.0
1466.051,18005.0
1467.234,18275.0
1468.417,18097.0
1469.6,18166.0
1470.782,18272.0
1471.965,18142.0
1473.147,18056.0
1474.329,18199.0
1475.51,18190.0
1476.692,18340.0
1477.873,18242.0
1479.055,18262.0
1480.236,18185.0
1481.416,18343.0
1482.597,18205.0
1483.778,18286.0
1484.958,18267.0
1486.138,18238.0
1487.318,18134.0
1488.498,18142.387
1489.678,18271.0
1490.857,18129.0
1492.037,18234.0
1493.216,18286.0
1494.395,18322.0
1495.574,18256.0
1496.752,18297.0
1497.931,18160.0
1499.109,18233.0
1500.287,18105.0
1501.465,18174.0
1502.643,18051.0
1503.82,18100.0
1504.998,18165.0
1506.175,18206.0
1507.352,18185.0
1508.529,18140.0
1509.706,18316.0
1510.882,18044.0
