Raman Shift,Intensity
160.3154,0.022104001
160.7975,0.039755002
161.2796,0.119862
161.7617,0.388905
162.2438,0.814747
162.7259,1.042788
163.2081,0.807426
163.6902,0.490376
164.1723,0.42911
164.6544,0.6562
165.1365,0.949507
165.6186,1.063332
166.1008,1.01178
166.5829,1.104834
167.065,1.0298
167.5471,0.982143
168.0292,0.965969
168.5113,0.982164
168.9935,1.01545
169.4756,1.01807
169.9577,0.958981
170.4398,0.937117
170.9219,1.076962
171.404,1.18795
171.8862,1.046099
172.3683,0.581161
172.8504,0.016401
173.3325,0.294783
173.8146,0.082603
174.2967,0.415585
174.7789,0.714911
175.261,0.953199
175.7431,1.090731
176.2252,1.11338
176.7073,1.050177
177.1894,0.914371
177.6716,0.667608
178.1537,0.56687
178.6358,0.596498
179.1179,0.777504
179.6,0.908577
180.0821,0.890118
180.5643,0.83234
181.0464,0.738165
181.5285,0.662395
182.0106,0.634262
182.4927,0.705151
182.9749,0.849972
183.457,0.954651
183.9391,0.958742
184.4212,0.885559
184.9033,0.806252
185.3854,0.727083
185.8676,0.633001
186.3497,0.478415
186.8318,0.259491
187.3139,0.118404
187.796,0.1973
188.2781,0.356228
188.7603,0.445251
189.2424,0.428755
189.7245,0.351999
190.2066,0.250637
190.6887,0.100592
191.1708,0.016488999
191.653,0.127533
192.1351,0.279884
192.6172,0.328026
193.0993,0.209145
193.5814,0.0091530001
194.0635,0.087677002
194.5457,0.001621
195.0278,0.027174
195.5099,0.159931
195.992,0.385204
196.4741,0.46188
196.9562,0.301464
197.4384,0.0089889998
197.9205,0.221481
198.4026,0.287661
198.8847,0.305496
199.3668,0.285276
199.8489,0.229404
200.3311,0.1124
200.8132,0.082530998
201.2953,0.305584
201.7774,0.357496
202.2595,0.056944001
202.7416,0.226328
203.2238,0.524651
203.7059,0.770662
204.188,0.851191
204.6701,0.693399
205.1522,0.368631
205.6344,0.199787
206.1165,0.299431
206.5986,0.404354
207.0807,0.478197
207.5628,0.518375
208.0449,0.512808
208.5271,0.445663
209.0092,0.341549
209.4913,0.302704
209.9734,0.307886
210.4555,0.383654
210.9376,0.611935
211.4198,0.92988
211.9019,1.157761
212.384,1.185152
212.8661,1.07452
213.3482,1.015345
213.8303,1.031693
214.3125,1.056225
214.7946,1.013893
215.2767,0.929266
215.7588,0.9519
216.2409,1.219854
216.723,1.584263
217.2052,1.773563
217.6873,1.733755
218.1694,1.625347
218.6515,1.549746
219.1336,1.506393
219.6157,1.49435
220.0979,1.556353
220.58,1.621159
221.0621,1.584494
221.5442,1.404207
222.0263,1.250248
222.5084,1.328474
222.9906,1.665056
223.4727,1.95174
223.9548,2.105253
224.4369,2.156286
224.919,2.091228
225.4011,1.901495
225.8833,1.687584
226.3654,1.553692
226.8475,1.500191
227.3296,1.529547
227.8117,1.74572
228.2938,1.979904
228.776,2.123835
229.2581,2.156693
229.7402,2.135433
230.2223,2.111429
230.7044,2.039764
231.1866,2.076435
231.6687,2.433195
232.1508,2.804623
232.6329,3.004047
233.115,3.002611
233.5971,2.909004
234.0793,2.850187
234.5614,2.775023
235.0435,2.877363
235.5256,3.397499
236.0077,3.897429
236.4898,4.061056
236.972,3.857307
237.4541,3.516054
237.9362,3.330317
238.4183,3.292904
238.9004,3.462303
239.3825,4.064594
239.8647,4.666241
240.3468,5.00841
240.8289,5.048792
241.311,4.875031
241.7931,4.553928
242.2752,3.913206
242.7574,3.676718
243.2395,3.974924
243.7216,4.509985
244.2037,5.233047
244.6858,6.068459
245.1679,6.786114
245.6501,7.111284
246.1322,6.920614
246.6143,6.785765
247.0964,6.625656
247.5785,6.572739
248.0606,6.762194
248.5428,7.181099
249.0249,7.659628
249.507,8.021206
249.9891,8.236143
250.4712,8.616497
250.9533,9.466724
251.4355,10.2398
251.9176,10.38914
252.3997,9.976852
252.8818,9.697741
253.3639,10.17849
253.846,11.44631
254.3282,12.47869
254.8103,13.17902
255.2924,13.76037
255.7745,14.20999
256.2566,14.57306
256.7387,15.18026
257.2209,16.37167
257.703,18.04046
258.1851,19.38757
258.6672,20.02062
259.1493,20.63222
259.6314,21.78939
260.1136,23.4568
260.5957,25.10975
261.0778,26.49273
261.5599,27.6106
262.042,28.60581
262.5241,29.36578
263.0063,30.13698
263.4884,31.09093
263.9705,32.21673
264.4526,33.41904
264.9347,34.62763
265.4168,35.91393
265.899,37.37095
266.3811,39.07336
266.8632,40.81666
267.3453,42.42243
267.8275,43.91479
268.3096,45.51352
268.7917,47.28543
269.2738,49.22007
269.7559,51.22664
270.238,53.28526
270.7202,55.52044
271.2023,58.04924
271.6844,60.84444
272.1665,63.75458
272.6486,66.76776
273.1307,69.86627
273.6129,73.09619
274.095,76.47275
274.5771,79.70816
275.0592,82.59937
275.5413,85.19204
276.0234,87.79984
276.5056,90.87169
276.9877,93.39017
277.4698,94.78192
277.9519,95.11683
278.434,94.68711
278.9161,93.64346
279.3983,91.97134
279.8804,89.56375
280.3625,86.37615
280.8446,82.43707
281.3267,77.64003
281.8088,72.23663
282.291,66.74743
282.7731,61.34165
283.2552,56.08576
283.7373,51.22093
284.2194,46.80979
284.7015,42.71101
285.1837,38.70592
285.6658,34.91609
286.1479,31.53346
286.63,28.70414
287.1121,26.29888
287.5942,24.06996
288.0764,22.03607
288.5585,20.14713
289.0406,18.31783
289.5227,16.64412
290.0048,15.28867
290.4869,14.3231
290.9691,13.5471
291.4512,12.58354
291.9333,11.32863
292.4154,10.26864
292.8975,9.667038
293.3796,9.211416
293.8618,8.663347
294.3439,7.974873
294.826,7.295904
295.3081,6.857143
295.7902,6.715555
296.2723,6.536146
296.7545,6.214205
297.2366,5.860592
297.7187,5.54213
298.2008,5.272911
298.6829,5.023026
299.165,4.750076
299.6472,4.433485
300.1293,4.214771
300.6114,4.266022
301.0935,4.288889
301.5756,4.091547
302.0577,3.741568
302.5399,3.473022
303.022,3.528044
303.5041,3.873953
303.9862,3.997034
304.4683,3.716017
304.9504,3.414583
305.4326,3.269102
305.9147,3.209427
306.3968,3.08073
306.8789,2.757107
307.361,2.321199
307.8431,2.117804
308.3253,2.334412
308.8074,2.450373
309.2895,2.208132
309.7716,1.84721
310.2537,1.674736
310.7358,1.843021
311.218,2.171329
311.7001,2.245371
312.1822,1.942316
312.6643,1.649883
313.1464,1.399187
313.6285,1.211599
314.1107,1.119162
314.5928,1.12816
315.0749,1.189842
315.557,1.243324
316.0392,1.29328
316.5213,1.316778
317.0034,1.274677
317.4855,1.233864
317.9676,1.24147
318.4497,1.294981
318.9319,1.348797
319.414,1.379198
319.8961,1.39555
320.3782,1.294098
320.8603,0.828785
321.3424,0.480864
321.8246,0.503521
322.3067,0.800312
322.7888,1.118889
323.2709,1.28863
323.753,1.322365
324.2351,1.304401
324.7173,1.190922
325.1994,1.084885
325.6815,1.053562
326.1636,1.039457
326.6457,0.951727
327.1278,0.734987
327.61,0.449589
328.0921,0.229588
328.5742,0.057661001
329.0563,0.001656
329.5384,0.178455
330.0205,0.401424
330.5027,0.485924
330.9848,0.380699
331.4669,0.196068
331.949,0.069756001
332.4311,0.000185
332.9132,0.0024600001
333.3954,0.237291
333.8775,0.417791
334.3596,0.299959
334.8417,0.092358001
335.3238,0.483377
335.8059,0.597677
336.2881,0.431726
336.7702,0.286707
337.2523,0.171181
337.7344,0.076233
338.2165,0.0057489998
338.6986,0.072237
339.1808,0.113525
339.6629,0.102251
340.145,0.066621996
340.6271,0.132185
341.1092,0.38706
341.5913,0.569733
342.0735,0.549294
342.5556,0.42066
343.0377,0.278263
343.5198,0.140751
344.0019,0.052623998
344.484,0.135721
344.9662,0.45973
345.4483,0.650845
345.9304,0.476616
346.4125,0.191162
346.8946,0.070499003
347.3767,0.286366
347.8589,0.413744
348.341,0.358326
348.8231,0.126587
349.3052,0.003635
349.7873,0.098454997
350.2694,0.205935
350.7516,0.118223
351.2337,0.115511
351.7158,0.279228
352.1979,0.182261
352.68,0.088460997
353.1621,0.247414
353.6443,0.27302
354.1264,0.223331
354.6085,0.05517
355.0906,0.149536
355.5727,0.245953
356.0548,0.133036
356.537,0.043623
357.0191,0.061990999
357.5012,0.097480997
357.9833,0.199266
358.4654,0.113894
358.9475,0.064323001
359.4297,0.243753
359.9118,0.432964
360.3939,0.548622
360.876,0.48913
361.3581,0.28804
361.8402,0.110497
362.3224,0.014082
362.8045,0.088503003
363.2866,0.120771
363.7687,0.112783
364.2508,0.057328999
364.7329,0.126163
365.2151,0.335484
365.6972,0.374489
366.1793,0.204184
366.6614,0.0028649999
367.1436,0.089804001
367.6257,0.107132
368.1078,0.153399
368.5899,0.315409
369.072,0.450136
369.5541,0.395039
370.0363,0.181679
370.5184,0.021875
371.0005,0.021832
371.4826,0.132158
371.9647,0.240538
372.4468,0.356333
372.929,0.447687
373.4111,0.506151
373.8932,0.530979
374.3753,0.513996
374.8574,0.450336
375.3395,0.359463
375.8217,0.235439
376.3038,0.059184998
376.7859,0.037147999
377.268,0.365311
377.7501,0.735971
378.2322,0.858646
378.7144,0.73632
379.1965,0.583628
379.6786,0.551889
380.1607,0.634745
380.6428,0.731829
381.1249,0.88866
381.6071,1.0075
382.0892,1.021254
382.5713,0.976788
383.0534,0.964849
383.5355,1.025696
384.0176,1.129465
384.4998,1.211584
384.9819,1.236614
385.464,1.299873
385.9461,1.464291
386.4282,1.628803
386.9103,1.717552
387.3925,1.7208
387.8746,1.637592
388.3567,1.452467
388.8388,1.13386
389.3209,0.947943
389.803,0.894644
390.2852,0.94381
390.7673,1.202324
391.2494,1.555304
391.7315,1.755377
392.2136,1.647463
392.6957,1.321913
393.1779,1.159651
393.66,1.378576
394.1421,1.518162
394.6242,1.419603
395.1063,1.291027
395.5884,1.369419
396.0706,1.692167
396.5527,2.042034
397.0348,2.080523
397.5169,1.662239
397.999,1.507133
398.4811,1.923937
398.9633,2.333666
399.4454,2.491219
399.9275,2.446938
400.4096,2.378332
400.8917,2.402304
401.3738,2.497961
401.856,2.581524
402.3381,2.672367
402.8202,2.720633
403.3023,2.642389
403.7844,2.551819
404.2665,2.567574
404.7487,2.717096
405.2308,2.94265
405.7129,3.169441
406.195,3.404617
406.6771,3.790279
407.1592,4.529348
407.6414,5.206047
408.1235,5.53998
408.6056,5.568445
409.0877,5.471968
409.5698,5.174286
410.0519,4.833017
410.5341,4.863403
411.0162,5.358559
411.4983,5.909954
411.9804,6.18119
412.4625,6.378241
412.9446,6.866396
413.4268,7.877655
413.9089,8.87505
414.391,9.369883
414.8731,9.454983
415.3553,9.52722
415.8374,9.641127
416.3195,9.889988
416.8016,10.43089
417.2837,11.24688
417.7658,12.18846
418.248,13.35353
418.7301,14.56887
419.2122,15.54029
419.6943,16.25657
420.1764,17.14547
420.6585,18.55624
421.1407,20.46158
421.6228,22.34549
422.1049,24.04001
422.587,25.9049
423.0691,28.13324
423.5512,30.62896
424.0334,33.22938
424.5155,35.85287
424.9976,38.53923
425.4797,41.34874
425.9618,44.22817
426.4439,47.37487
426.9261,51.14161
427.4082,54.90775
427.8903,58.20497
428.3724,61.06008
428.8545,63.76764
429.3366,66.53994
429.8188,69.40706
430.3009,72.63362
430.783,76.47229
431.2651,80.45233
431.7472,84.38344
432.2293,88.46481
432.7115,92.88879
433.1936,97.72192
433.6757,102.8994
434.1578,108.2292
434.6399,113.5714
435.122,119.5032
435.6042,125.9035
436.0863,133.0358
436.5684,141.2797
437.0505,150.4248
437.5326,159.8794
438.0147,169.1197
438.4969,178.3473
438.979,188.4538
439.4611,199.9356
439.9432,211.0183
440.4253,221.0675
440.9074,230.3562
441.3896,239.4913
441.8717,248.9445
442.3538,256.4661
442.8359,260.236
443.318,260.3816
443.8001,257.42
444.2823,251.3198
444.7644,242.2865
445.2465,229.6919
445.7286,214.0908
446.2107,197.8281
446.6928,180.684
447.175,163.7215
447.6571,147.9223
448.1392,133.3545
448.6213,120.0428
449.1034,108.0938
449.5855,97.45055
450.0677,88.0078
450.5498,79.89751
451.0319,72.47395
451.514,65.54114
451.9961,59.1922
452.4782,53.66277
452.9604,48.97645
453.4425,44.90129
453.9246,41.21723
454.4067,37.9304
454.8888,35.04171
455.3709,32.65058
455.8531,30.48548
456.3352,28.47314
456.8173,26.61987
457.2994,24.93457
457.7815,23.42857
458.2636,22.08655
458.7458,20.88634
459.2279,19.92202
459.71,18.90078
460.1921,17.65181
460.6742,16.48483
461.1563,15.61618
461.6385,15.0083
462.1206,14.47386
462.6027,13.8686
463.0848,13.24006
463.5669,12.7119
464.0491,12.32063
464.5312,11.8605
465.0133,11.22896
465.4954,10.50777
465.9775,9.718479
466.4597,8.849131
466.9418,8.122669
467.4239,7.81142
467.906,7.8643
468.3881,7.848732
468.8702,7.694212
469.3524,7.477592
469.8345,7.224983
470.3166,6.95599
470.7987,6.739483
471.2808,6.720667
471.7629,6.662045
472.2451,6.266521
472.7272,5.608101
473.2093,5.075382
473.6914,4.862213
474.1735,4.832987
474.6556,4.684744
475.1378,4.335018
475.6199,4.118046
476.102,4.227276
476.5841,4.389853
477.0662,4.356096
477.5483,4.120142
478.0305,3.819416
478.5126,3.548828
478.9947,3.31028
479.4768,3.132843
479.9589,3.106636
480.441,3.028589
480.9232,2.830376
481.4053,2.589613
481.8874,2.367437
482.3695,2.186718
482.8516,2.071629
483.3337,2.080751
483.8159,2.243305
484.298,2.276287
484.7801,2.030865
485.2622,1.821371
485.7443,1.807262
486.2264,1.888199
486.7086,1.88785
487.1907,1.7166
487.6728,1.494869
488.1549,1.428717
488.637,1.533752
489.1191,1.529181
489.6013,1.29467
490.0834,0.993399
490.5655,0.769905
491.0476,0.614796
491.5297,0.466549
492.0118,0.25322
492.494,0.059503999
492.9761,0.002081
493.4582,0.079388
493.9403,0.235134
494.4224,0.496555
494.9045,0.767857
495.3867,0.777906
495.8688,0.429363
496.3509,0.119139
496.833,0.101721
497.3151,0.217844
497.7972,0.158827
498.2794,0.054563999
498.7615,0.262825
499.2436,0.33007
499.7257,0.263739
500.2078,0.183102
500.6899,0.060612001
501.1721,0.053993002
501.6542,0.193037
502.1363,0.295208
502.6184,0.276114
503.1005,0.123426
503.5826,0.072893001
504.0648,0.210886
504.5469,0.2897
505.029,0.318722
505.5111,0.271639
505.9932,0.204306
506.4753,0.170391
506.9575,0.124659
507.4396,0.03878
507.9217,0.404046
508.4038,0.745402
508.8859,0.75116
509.368,0.438412
509.8502,0.095784999
510.3323,0.272776
510.8144,0.562834
511.2965,0.634827
511.7786,0.525057
512.2607,0.412682
512.7429,0.321756
513.225,0.261936
513.7071,0.266308
514.1892,0.316025
514.6713,0.324366
515.1534,0.244305
515.6356,0.129482
516.1177,0.088099003
516.5998,0.16836
517.0819,0.214988
517.564,0.164844
518.0461,0.125532
518.5283,0.246922
519.0104,0.458816
519.4925,0.498801
519.9746,0.163878
520.4567,0.389319
520.9388,0.544548
521.421,0.020366
521.9031,0.379558
522.3852,0.322603
522.8673,0.131695
523.3494,0.061820999
523.8315,0.210511
524.3137,0.238343
524.7958,0.002501
525.2779,0.401702
525.76,0.52377
526.2421,0.273736
526.7242,0.050088
527.2064,0.081072003
527.6885,0.220537
528.1706,0.275335
528.6527,0.216539
529.1348,0.162191
529.6169,0.223969
530.0991,0.309845
530.5812,0.213511
531.0633,0.085019
531.5454,0.304146
532.0275,0.221645
532.5096,0.118816
532.9918,0.420856
533.4739,0.782214
533.956,0.992636
534.4381,0.868568
534.9202,0.640915
535.4023,0.596448
535.8845,0.770939
536.3666,0.958359
536.8487,0.936588
537.3308,0.704661
537.8129,0.545514
538.2951,0.414448
538.7772,0.429036
539.2593,0.793231
539.7415,1.216311
540.2236,1.342582
540.7057,1.088859
541.1878,0.776962
541.6699,0.759514
542.152,0.990283
542.6342,1.126011
543.1163,1.09986
543.5984,1.072027
544.0805,1.18936
544.5626,1.369659
545.0447,1.445167
545.5269,1.314396
546.009,1.228621
546.4911,1.412199
546.9732,1.72546
547.4553,1.908472
547.9374,1.906071
548.4196,1.764664
548.9017,1.485382
549.3838,1.059459
549.8659,0.893783
550.348,1.220865
550.8301,1.480537
551.3123,1.523019
551.7944,1.413229
552.2765,1.183463
552.7586,0.863601
553.2407,0.578376
553.7228,0.504725
554.205,0.65903
554.6871,0.721406
555.1692,0.652267
555.6513,0.547931
556.1334,0.403324
556.6155,0.254973
557.0977,0.147799
557.5798,0.090581998
558.0619,0.106307
558.544,0.250566
559.0261,0.48912
559.5082,0.708718
559.9904,0.904549
560.4725,1.028921
560.9546,1.032109
561.4367,0.92545
561.9188,0.807602
562.4009,0.627219
562.8831,0.501119
563.3652,0.498258
563.8473,0.559807
564.3294,0.614462
564.8115,0.646035
565.2936,0.660354
565.7758,0.637039
566.2579,0.572233
566.74,0.596192
567.2221,0.910659
567.7042,1.120039
568.1863,1.016548
568.6685,0.807364
569.1506,0.729218
569.6327,0.826325
570.1148,0.938267
570.5969,0.882144
571.079,0.691856
571.5612,0.584044
572.0433,0.593793
572.5254,0.590796
573.0075,0.487024
573.4896,0.346585
573.9717,0.24978
574.4539,0.197527
574.936,0.177758
575.4181,0.212219
575.9002,0.270976
576.3823,0.301028
576.8644,0.302197
577.3466,0.313516
577.8287,0.342017
578.3108,0.361359
578.7929,0.406177
579.275,0.624146
579.7571,0.751493
580.2393,0.757806
580.7214,0.702634
581.2035,0.572692
581.6856,0.383471
582.1677,0.194653
582.6498,0.048802
583.132,0.021589
583.6141,0.115241
584.0962,0.545305
584.5783,0.890787
585.0604,1.030907
585.5425,1.053271
586.0247,0.985553
586.5068,0.852034
586.9889,0.792107
587.471,0.967687
587.9531,1.173789
588.4352,1.128488
588.9174,0.863958
589.3995,0.653208
589.8816,0.651529
590.3637,0.751338
590.8458,0.71435
591.3279,0.457403
591.8101,0.338987
592.2922,0.472333
592.7743,0.619134
593.2564,0.586496
593.7385,0.477978
594.2206,0.526495
594.7028,0.839314
595.1849,1.263886
595.667,1.573904
596.1491,1.762918
596.6312,1.81221
597.1133,1.633348
597.5955,1.420911
598.0776,1.292744
598.5597,1.198557
599.0418,1.025335
599.5239,0.693894
600.006,0.408794
600.4882,0.339321
600.9703,0.43763
601.4524,0.627436
601.9345,0.900243
602.4166,1.103639
602.8987,1.088067
603.3809,0.865613
603.863,0.725116
604.3451,0.711857
604.8272,0.724648
605.3093,0.786175
605.7914,0.858915
606.2736,0.876061
606.7557,0.834835
607.2378,0.791716
607.7199,0.796981
608.202,0.833618
608.6841,0.800712
609.1663,0.649311
609.6484,0.571564
610.1305,0.71872
610.6126,0.895808
611.0947,0.934586
611.5768,0.833603
612.059,0.699657
612.5411,0.517472
613.0232,0.36502
613.5053,0.344405
613.9874,0.436954
614.4695,0.562284
614.9517,0.699162
615.4338,0.802051
615.9159,0.789444
616.398,0.61237
616.8801,0.50365
617.3622,0.514119
617.8444,0.524664
618.3265,0.479844
618.8086,0.403159
619.2907,0.324865
619.7728,0.256942
620.2549,0.223919
620.7371,0.266726
621.2192,0.383419
621.7013,0.522586
622.1834,0.724829
622.6655,0.850519
623.1476,0.776901
623.6298,0.585015
624.1119,0.382174
624.594,0.137839
625.0761,0.0062910002
625.5582,0.164062
626.0403,0.415853
626.5225,0.485225
627.0046,0.37563
627.4867,0.306443
627.9688,0.429155
628.4509,0.670149
628.933,0.792117
629.4152,0.765638
629.8973,0.665924
630.3794,0.390213
630.8615,0.147692
631.3436,0.046165999
631.8257,0.074665003
632.3079,0.206903
632.79,0.478621
633.2721,0.721537
633.7542,0.624894
634.2363,0.235066
634.7184,0.011126
635.2006,0.014191
635.6827,0.097537003
636.1648,0.281683
636.6469,0.503338
637.1291,0.53167
637.6112,0.165008
638.0933,0.156545
638.5754,0.341896
639.0576,0.380254
639.5397,0.167518
640.0218,0.246709
640.5039,0.575646
640.986,0.569515
641.4681,0.315002
641.9503,0.20371
642.4324,0.311108
642.9145,0.345339
643.3966,0.130112
643.8787,0.087030999
644.3608,0.120208
644.843,0.0050169998
645.3251,0.123969
645.8072,0.142665
646.2893,0.147643
646.7714,0.2846
647.2535,0.485847
647.7357,0.484293
648.2178,0.187662
648.6999,0.123163
649.182,0.110559
649.6641,0.249691
650.1462,0.445831
650.6284,0.359407
651.1105,0.263311
651.5926,0.245722
652.0747,0.223635
652.5568,0.050911002
653.0389,0.256264
653.5211,0.458545
654.0032,0.300135
654.4853,0.078123003
654.9674,0.287767
655.4495,0.32056
655.9316,0.261129
656.4138,0.079406999
656.8959,0.110342
657.378,0.1397
657.8601,0.018663
658.3422,0.089120999
658.8243,0.216833
659.3065,0.277271
659.7886,0.121962
660.2707,0.103849
660.7528,0.102062
661.2349,0.187769
661.717,0.460691
662.1992,0.324841
662.6813,0.192228
663.1634,0.424522
663.6455,0.272882
664.1276,0.033721998
664.6097,0.353298
665.0919,0.68582
665.574,0.737103
666.0561,0.505465
666.5382,0.279705
667.0203,0.2111
667.5024,0.194592
667.9846,0.104473
668.4667,0.032030001
668.9488,0.11162
669.4309,0.095783003
669.913,0.010946
670.3951,0.11799
670.8773,0.302101
671.3594,0.43721
671.8415,0.432936
672.3236,0.493656
672.8057,0.758873
673.2878,1.052351
673.77,1.166245
674.2521,1.078354
674.7342,0.972963
675.2163,1.005186
675.6984,1.111771
676.1805,1.15307
676.6627,1.13138
677.1448,1.139397
677.6269,1.221794
678.109,1.32489
678.5911,1.369059
679.0732,1.337681
679.5554,1.357903
680.0375,1.476372
680.5196,1.587221
681.0017,1.607304
681.4838,1.617922
681.9659,1.766043
682.4481,2.054308
682.9302,2.276283
683.4123,2.189621
683.8944,1.902897
684.3765,1.889009
684.8586,2.200583
685.3408,2.447159
685.8229,2.468336
686.305,2.405039
686.7871,2.455484
687.2692,2.615391
687.7513,2.688711
688.2335,2.559242
688.7156,2.420626
689.1977,2.366131
689.6798,2.386786
690.1619,2.458153
690.644,2.572149
691.1262,2.739113
691.6083,3.002131
692.0904,3.326025
692.5725,3.453566
693.0546,3.321508
693.5367,3.227318
694.0189,3.300638
694.501,3.394678
694.9831,3.334602
695.4652,3.146116
695.9473,3.063137
696.4294,3.26672
696.9116,3.511074
697.3937,3.620287
697.8758,3.673553
698.3579,3.813915
698.84,4.0653
699.3221,4.274256
699.8043,4.26803
700.2864,4.097837
700.7685,4.163204
701.2506,4.656878
701.7327,4.958246
702.2148,4.751625
702.697,4.501003
703.1791,4.501392
703.6612,4.710701
704.1433,4.928856
704.6254,5.118387
705.1075,5.244291
705.5897,5.192192
706.0718,5.074348
706.5539,5.14913
707.036,5.46995
707.5181,5.816708
708.0002,5.984999
708.4824,6.014431
708.9645,6.116013
709.4466,6.399693
709.9287,6.544502
710.4108,6.407812
710.8929,6.219572
711.3751,6.095213
711.8572,6.056814
712.3393,6.102762
712.8214,6.229944
713.3035,6.362452
713.7856,6.456331
714.2678,6.506081
714.7499,6.443632
715.232,6.281979
715.7141,6.229061
716.1962,6.429005
716.6783,6.795757
717.1605,7.090145
717.6426,7.313786
718.1247,7.447079
718.6068,7.481689
719.0889,7.462576
719.571,7.401384
720.0532,7.289898
720.5353,7.053316
721.0174,6.645061
721.4995,6.364952
721.9816,6.525654
722.4637,6.937317
722.9459,7.268581
723.428,7.494888
723.9101,7.651953
724.3922,7.762522
724.8743,7.798244
725.3564,7.677259
725.8386,7.279675
726.3207,7.157045
726.8028,7.657036
727.2849,8.021925
727.767,7.90929
728.2491,7.593292
728.7313,7.42555
729.2134,7.466494
729.6955,7.496782
730.1776,7.301067
730.6597,7.034252
731.1418,6.970974
731.624,7.076628
732.1061,7.109131
732.5882,6.97278
733.0703,6.834419
733.5524,6.93438
734.0345,7.295282
734.5167,7.349152
734.9988,6.783478
735.4809,6.311302
735.9631,6.041544
736.4452,5.90521
736.9273,5.892014
737.4094,5.96706
737.8915,6.017744
738.3737,5.983438
738.8558,5.903004
739.3379,5.847351
739.82,5.780676
740.3021,5.54137
740.7842,5.099377
741.2664,4.718807
741.7485,4.620575
742.2306,4.749723
742.7127,4.846439
743.1948,4.961948
743.6769,4.947132
744.1591,4.748367
744.6412,4.471247
745.1233,4.08848
745.6054,3.683765
746.0875,3.414061
746.5696,3.337961
747.0518,3.367212
747.5339,3.516548
748.016,3.693007
748.4981,3.706099
748.9802,3.5672
749.4623,3.468412
749.9445,3.515514
750.4266,3.605791
750.9087,3.533127
751.3908,3.238306
751.8729,3.066944
752.355,3.167425
752.8372,3.192423
753.3193,2.927542
753.8014,2.59746
754.2835,2.472366
754.7656,2.578037
755.2477,2.673441
755.7299,2.632296
756.212,2.540808
756.6941,2.487
757.1762,2.447792
757.6583,2.336393
758.1404,2.137178
758.6226,1.987112
759.1047,2.052505
759.5868,2.273685
760.0689,2.201481
760.551,1.667311
761.0331,1.291302
761.5153,1.257536
761.9974,1.349514
762.4795,1.504768
762.9616,1.660046
763.4437,1.604538
763.9258,1.175253
764.408,0.744173
764.8901,0.45005
765.3722,0.275337
765.8543,0.233694
766.3364,0.296659
766.8185,0.397354
767.3007,0.503843
767.7828,0.571152
768.2649,0.500153
768.747,0.284992
769.2291,0.083930999
769.7112,0.129253
770.1934,0.242151
770.6755,0.151543
771.1576,0.040236998
771.6397,0.167952
772.1218,0.231192
772.6039,0.250486
773.0861,0.204962
773.5682,0.142538
774.0503,0.038008001
774.5324,0.044155002
775.0145,0.015186
775.4966,0.218887
775.9788,0.418402
776.4609,0.492191
776.943,0.474331
777.4251,0.428362
777.9072,0.355822
778.3893,0.311182
778.8715,0.306576
779.3536,0.332996
779.8357,0.382017
780.3178,0.455252
780.7999,0.562651
781.282,0.878489
781.7642,0.975422
782.2463,0.578615
782.7284,0.195204
783.2105,0.204649
783.6926,0.461319
784.1747,0.618105
784.6569,0.546959
785.139,0.429375
785.6211,0.470175
786.1032,0.560984
786.5853,0.441902
787.0674,0.13595
787.5496,0.099858999
788.0317,0.156727
788.5138,0.064208999
788.9959,0.167053
789.478,0.559046
789.9601,0.770876
790.4423,0.710632
790.9244,0.615818
791.4065,0.461088
791.8886,0.358274
792.3707,0.418356
792.8528,0.631086
793.335,0.855951
793.8171,1.199383
794.2992,1.368433
794.7813,0.974924
795.2634,0.403809
795.7455,0.220259
796.2277,0.435019
796.7098,0.717535
797.1919,0.878187
797.674,0.930027
798.1561,0.87911
798.6382,0.719681
799.1204,0.602411
799.6025,0.512709
800.0846,0.53665
800.5667,0.771072
801.0488,1.106445
801.5309,1.373524
802.0131,1.598953
802.4952,1.636497
802.9773,1.270168
803.4594,0.947418
803.9415,0.850271
804.4236,0.909632
804.9058,1.102818
805.3879,1.377045
805.87,1.564754
806.3521,1.530262
806.8342,1.42206
807.3163,1.46549
807.7985,1.623699
808.2806,1.756207
808.7627,1.838598
809.2448,1.839499
809.7269,1.721655
810.209,1.529236
810.6912,1.400961
811.1733,1.373108
811.6554,1.327265
812.1375,1.173903
812.6196,1.096001
813.1017,1.232019
813.5839,1.455862
814.066,1.625244
814.5481,1.722754
815.0302,1.702715
815.5123,1.414522
815.9944,1.125439
816.4766,1.056067
816.9587,1.137918
817.4408,1.29541
817.9229,1.47813
818.405,1.531307
818.8871,1.299261
819.3693,0.943407
819.8514,0.976318
820.3335,1.428282
820.8156,1.598623
821.2977,1.318882
821.7798,0.946293
822.262,0.649601
822.7441,0.462791
823.2262,0.510353
823.7083,0.984987
824.1904,1.244532
824.6725,1.088535
825.1547,0.930801
825.6368,0.936455
826.1189,1.045996
826.601,1.218222
827.0831,1.43478
827.5652,1.559643
828.0474,1.438097
828.5295,1.236094
829.0116,1.15955
829.4937,1.13595
829.9758,1.023586
830.4579,0.804665
830.9401,0.610846
831.4222,0.544428
831.9043,0.574549
832.3864,0.621904
832.8685,0.70343
833.3506,0.721373
833.8328,0.616966
834.3149,0.509771
834.7971,0.456673
835.2792,0.456091
835.7613,0.522251
836.2434,0.680706
836.7255,0.759872
837.2076,0.700876
837.6898,0.591923
838.1719,0.383667
838.654,0.208963
839.1361,0.292761
839.6182,0.590748
840.1003,0.771547
840.5825,0.574142
841.0646,0.248011
841.5467,0.106285
842.0288,0.120888
842.5109,0.250456
842.993,0.480904
843.4752,0.677147
843.9573,0.752651
844.4394,0.722324
844.9215,0.59553
845.4036,0.323841
845.8857,0.204954
846.3679,0.338753
846.85,0.450878
847.3321,0.385118
847.8142,0.289862
848.2963,0.387856
848.7784,0.660313
849.2606,0.708826
849.7427,0.137484
850.2248,0.271128
850.7069,0.033213001
851.189,0.388321
851.6711,0.523302
852.1533,0.394682
852.6354,0.278303
853.1175,0.31213
853.5996,0.362049
854.0817,0.196178
854.5638,0.05714
855.046,0.007309
855.5281,0.373831
856.0102,0.647301
856.4923,0.665344
856.9744,0.579563
857.4565,0.581223
857.9387,0.664505
858.4208,0.707634
858.9029,0.705946
859.385,0.67849
859.8671,0.644131
860.3492,0.569576
860.8314,0.408403
861.3135,0.18435
861.7956,0.048492
862.2777,0.366236
862.7598,0.499722
863.2419,0.237292
863.7241,0.133035
864.2062,0.425148
864.6883,0.586545
865.1704,0.613662
865.6525,0.514984
866.1346,0.378558
866.6168,0.258049
867.0989,0.16035
867.581,0.092354998
868.0631,0.046115998
868.5452,0.012424
869.0273,0.083962001
869.5095,0.059897002
869.9916,0.157066
870.4737,0.468668
870.9558,0.589524
871.4379,0.47822
871.92,0.433457
872.4022,0.512884
872.8843,0.569617
873.3664,0.535838
873.8485,0.433663
874.3306,0.240869
874.8127,0.054304998
875.2949,0.118763
875.777,0.405223
876.2591,0.736191
876.7412,0.451805
877.2233,0.040043999
877.7054,0.085417002
878.1876,0.043515
878.6697,0.198108
879.1518,0.299908
879.6339,0.365945
880.116,0.421048
880.5981,0.437196
881.0803,0.355939
881.5624,0.199291
882.0445,0.019078
882.5266,0.15922
883.0087,0.259307
883.4908,0.180511
883.973,0.029456999
884.4551,0.203711
884.9372,0.341278
885.4193,0.305867
885.9014,0.0061670002
886.3835,0.192241
886.8657,0.026309
887.3478,0.480916
887.8299,0.669341
888.312,0.483377
888.7941,0.312827
889.2762,0.142059
889.7584,0.010096
890.2405,0.119472
890.7226,0.172602
891.2047,0.00070799998
891.6868,0.368829
892.1689,0.598212
892.6511,0.484074
893.1332,0.333422
893.6153,0.30544
894.0974,0.322322
894.5795,0.313463
895.0616,0.270788
895.5438,0.178959
896.0259,0.031605002
896.508,0.060727999
896.9901,0.095178001
897.4722,0.367422
897.9543,0.421124
898.4365,0.290109
898.9186,0.197747
899.4007,0.206265
899.8828,0.227695
900.3649,0.174219
900.847,0.093396001
901.3292,0.177416
901.8113,0.472154
902.2934,0.712158
902.7755,0.901584
903.2576,0.979614
903.7397,0.865219
904.2219,0.659453
904.704,0.508385
905.1861,0.409188
905.6682,0.400778
906.1503,0.609521
906.6324,0.742995
907.1146,0.672284
907.5967,0.549273
908.0788,0.482766
908.5609,0.479259
909.043,0.470523
909.5251,0.43172
910.0073,0.40715
910.4894,0.433415
910.9715,0.475764
911.4536,0.514312
911.9357,0.537554
912.4178,0.52125
912.9,0.466443
913.3821,0.394914
913.8642,0.315184
914.3463,0.246955
914.8284,0.221662
915.3105,0.239973
915.7927,0.336024
916.2748,0.509143
916.7569,0.600105
917.239,0.508973
917.7211,0.356158
918.2032,0.354342
918.6854,0.511182
919.1675,0.665347
919.6496,0.889322
920.1317,0.831054
920.6138,0.185927
921.0959,0.408818
921.5781,0.345062
922.0602,0.219566
922.5423,0.561671
923.0244,0.618131
923.5065,0.584089
923.9886,0.341421
924.4708,0.152344
924.9529,0.145776
925.435,0.249496
925.9171,0.420576
926.3992,0.63029
926.8813,0.716605
927.3635,0.465956
927.8456,0.266638
928.3277,0.461331
928.8098,0.729021
929.2919,0.666213
929.774,0.350166
930.2562,0.080764003
930.7383,0.018111
931.2204,0.0067480002
931.7025,0.203809
932.1846,0.444529
932.6667,0.463664
933.1489,0.30752
933.631,0.116932
934.1132,0.073781997
934.5953,0.104654
935.0774,0.170359
935.5595,0.568483
936.0416,0.649378
936.5237,0.40519
937.0059,0.269347
937.488,0.276771
937.9701,0.30644
938.4522,0.31021
938.9343,0.317738
939.4164,0.380038
939.8986,0.484989
940.3807,0.467496
940.8628,0.251088
941.3449,0.081679001
941.827,0.058154002
942.3091,0.093145996
942.7913,0.084069997
943.2734,0.358773
943.7555,0.561035
944.2376,0.681483
944.7197,0.70577
945.2018,0.443109
945.684,0.294398
946.1661,0.53618
946.6482,0.858841
947.1303,1.024703
947.6124,1.007201
948.0945,0.799698
948.5767,0.347281
949.0588,0.011911
949.5409,0.031846002
950.023,0.238453
950.5051,0.602481
950.9872,0.983212
951.4694,1.09418
951.9515,0.922962
952.4336,0.765346
952.9157,0.838621
953.3978,0.985312
953.8799,0.969268
954.3621,0.84542
954.8442,0.764949
955.3263,0.733614
955.8084,0.702651
956.2905,0.65426
956.7726,0.6757
957.2548,0.905989
957.7369,1.2626
958.219,1.363686
958.7011,1.195526
959.1832,1.006334
959.6653,0.813275
960.1475,0.692101
960.6296,0.703831
961.1117,0.783362
961.5938,0.812202
962.0759,0.78576
962.558,0.748285
963.0402,0.66877
963.5223,0.644798
964.0044,0.714172
964.4865,0.825844
964.9686,0.995927
965.4507,1.172804
965.9329,1.189332
966.415,0.978586
966.8971,0.789931
967.3792,0.59668
967.8613,0.479565
968.3434,0.492885
968.8256,0.577205
969.3077,0.688
969.7898,0.815698
970.2719,0.953352
970.754,1.145856
971.2361,1.245824
971.7183,1.084215
972.2004,0.909745
972.6825,1.000343
973.1646,1.179862
973.6467,1.080842
974.1288,0.686204
974.611,0.43484
975.0931,0.686553
975.5752,1.010076
976.0573,0.972298
976.5394,0.77848
977.0215,0.724075
977.5037,0.799142
977.9858,0.869411
978.4679,0.879632
978.95,0.83437
979.4321,0.798114
979.9142,0.794634
980.3964,0.799848
980.8785,0.801935
981.3606,0.753119
981.8427,0.656002
982.3248,0.645366
982.8069,0.805062
983.2891,1.005225
983.7712,1.036102
984.2533,0.927299
984.7354,0.909439
985.2175,0.983395
985.6996,1.076992
986.1818,1.204065
986.6639,1.194575
987.146,0.890953
987.6281,0.448787
988.1102,0.224143
988.5923,0.237911
989.0745,0.373671
989.5566,0.742944
990.0387,0.90105
990.5208,0.581056
991.0029,0.256145
991.485,0.40687
991.9672,0.866924
992.4493,1.006382
992.9314,0.646905
993.4135,0.441879
993.8956,0.502401
994.3777,0.549136
994.8599,0.418056
995.342,0.298736
995.8241,0.41739
996.3062,0.722045
996.7883,0.901981
997.2704,0.845213
997.7526,0.822991
998.2347,0.945962
998.7168,1.020728
999.1989,0.895174
999.681,0.699461
1000.163,0.614473
1000.645,0.65437
1001.127,0.682921
1001.609,0.638719
1002.092,0.587145
1002.574,0.54743
1003.056,0.519681
1003.538,0.531085
1004.02,0.551126
1004.502,0.478775
1004.984,0.317835
1005.466,0.278929
1005.949,0.573531
1006.431,0.880898
1006.913,0.981928
1007.395,0.958799
1007.877,0.859574
1008.359,0.723061
1008.841,0.599425
1009.323,0.50947
1009.805,0.48237
1010.288,0.594733
1010.77,0.694318
1011.252,0.504887
1011.734,0.218742
1012.216,0.262898
1012.698,0.571547
1013.18,0.705977
1013.662,0.494195
1014.145,0.238745
1014.627,0.273615
1015.109,0.451531
1015.591,0.477847
1016.073,0.393446
1016.555,0.314122
1017.037,0.263017
1017.519,0.261352
1018.001,0.320103
1018.484,0.40938
1018.966,0.505633
1019.448,0.592571
1019.93,0.601639
1020.412,0.539884
1020.894,0.457243
1021.376,0.364189
1021.858,0.340368
1022.341,0.442717
1022.823,0.559366
1023.305,0.491436
1023.787,0.261778
1024.269,0.189299
1024.751,0.28457
1025.233,0.377938
1025.715,0.438015
1026.198,0.497695
1026.68,0.569777
1027.162,0.613825
1027.644,0.550707
1028.126,0.374923
1028.608,0.360385
1029.09,0.546653
1029.572,0.708277
1030.054,0.802438
1030.536,0.845775
1031.019,0.839436
1031.501,0.804966
1031.983,0.793659
1032.465,0.815825
1032.947,0.772511
1033.429,0.647422
1033.911,0.476727
1034.393,0.160576
1034.876,0.000627
1035.358,0.30043
1035.84,0.844605
1036.322,1.097329
1036.804,0.982811
1037.286,0.951406
1037.768,1.118446
1038.25,1.155186
1038.733,0.887005
1039.215,0.595501
1039.697,0.460969
1040.179,0.455999
1040.661,0.516778
1041.143,0.656118
1041.625,0.812372
1042.107,1.092473
1042.589,1.241776
1043.072,1.078403
1043.554,0.895051
1044.036,0.922085
1044.518,1.077445
1045.0,1.150924
1045.482,1.099591
1045.964,1.107019
1046.446,1.317885
1046.928,1.415112
1047.411,1.223865
1047.893,0.978128
1048.375,0.844686
1048.857,0.790342
1049.339,0.735164
1049.821,0.678913
1050.303,0.57949
1050.785,0.320076
1051.268,0.166973
1051.75,0.29242
1052.232,0.462085
1052.714,0.432726
1053.196,0.312222
1053.678,0.399529
1054.16,0.786405
1054.642,1.028095
1055.125,0.919621
1055.607,0.782487
1056.089,0.775045
1056.571,0.7499
1057.053,0.534055
1057.535,0.21897
1058.017,0.0066340002
1058.499,0.111691
1058.981,0.089037001
1059.464,0.193007
1059.946,0.435083
1060.428,0.52582
1060.91,0.517785
1061.392,0.386485
1061.874,0.217029
1062.356,0.188733
1062.838,0.343253
1063.32,0.441193
1063.803,0.36826
1064.285,0.260139
1064.767,0.146154
1065.249,0.049559999
1065.731,0.003118
1066.213,0.026052
1066.695,0.083247997
1067.177,0.18272
1067.66,0.129482
1068.142,0.372712
1068.624,0.762486
1069.106,0.699121
1069.588,0.48613
1070.07,0.333693
1070.552,0.242341
1071.034,0.155798
1071.516,0.085832998
1071.999,0.068798997
1072.481,0.195324
1072.963,0.324496
1073.445,0.418365
1073.927,0.459118
1074.409,0.361779
1074.891,0.234033
1075.373,0.284357
1075.855,0.521466
1076.338,0.685075
1076.82,0.625972
1077.302,0.546768
1077.784,0.548828
1078.266,0.565701
1078.748,0.594203
1079.23,0.580424
1079.712,0.394851
1080.195,0.071153998
1080.677,0.136342
1081.159,0.093378
1081.641,0.01211
1082.123,0.168052
1082.605,0.249028
1083.087,0.069174998
1083.569,0.163638
1084.052,0.144245
1084.534,0.110496
1085.016,0.331516
1085.498,0.42914
1085.98,0.481994
1086.462,0.534616
1086.944,0.543805
1087.426,0.435104
1087.908,0.302137
1088.391,0.254634
1088.873,0.283913
1089.355,0.328606
1089.837,0.385904
1090.319,0.391587
1090.801,0.248125
1091.283,0.131797
1091.765,0.18015
1092.248,0.272989
1092.73,0.276303
1093.212,0.218046
1093.694,0.206912
1094.176,0.27782
1094.658,0.316781
1095.14,0.271605
1095.622,0.200895
1096.104,0.069695003
1096.587,0.021064
1097.069,0.046649002
1097.551,0.211111
1098.033,0.349323
1098.515,0.440604
1098.997,0.477674
1099.479,0.405005
1099.961,0.351125
1100.443,0.377045
1100.926,0.41878
1101.408,0.443046
1101.89,0.44647
1102.372,0.424909
1102.854,0.379219
1103.336,0.330389
1103.818,0.224659
1104.3,0.203494
1104.783,0.411813
1105.265,0.583476
1105.747,0.511866
1106.229,0.362759
1106.711,0.391895
1107.193,0.569494
1107.675,0.566555
1108.157,0.132612
1108.64,0.077483997
1109.122,0.275849
1109.604,0.546414
1110.086,0.369999
1110.568,0.087111004
1111.05,0.028329
1111.532,0.147655
1112.014,0.230739
1112.496,0.248115
1112.979,0.284422
1113.461,0.414266
1113.943,0.465079
1114.425,0.288268
1114.907,0.12771
1115.389,0.183804
1115.871,0.370532
1116.353,0.511623
1116.835,0.624971
1117.318,0.608719
1117.8,0.351948
1118.282,0.164463
1118.764,0.077497996
1119.246,0.078904003
1119.728,0.223777
1120.21,0.391526
1120.692,0.381894
1121.175,0.199579
1121.657,0.084822997
1122.139,0.038311001
1122.621,0.067363001
1123.103,0.226354
1123.585,0.316558
1124.067,0.200437
1124.549,0.087687001
1125.031,0.235691
1125.514,0.578159
1125.996,0.753656
1126.478,0.714088
1126.96,0.777313
1127.442,1.029974
1127.924,0.955108
1128.406,0.279955
1128.888,0.2675
1129.37,0.057112001
1129.853,0.564139
1130.335,0.773696
1130.817,0.572896
1131.299,0.498483
1131.781,0.55922
1132.263,0.52958
1132.745,0.358096
1133.227,0.195215
1133.71,0.124831
1134.192,0.133626
1134.674,0.238535
1135.156,0.384469
1135.638,0.272365
1136.12,0.041972
1136.602,0.064717002
1137.084,0.224069
1137.567,0.377429
1138.049,0.221455
1138.531,0.020613
1139.013,0.143339
1139.495,0.152452
1139.977,0.0049259998
1140.459,0.226715
1140.941,0.345723
1141.423,0.345697
1141.906,0.269326
1142.388,0.148635
1142.87,0.072972998
1143.352,0.10939
1143.834,0.161155
1144.316,0.091453999
1144.798,0.019105
1145.28,0.055023
1145.762,0.033640999
1146.245,0.011213
1146.727,0.070166998
1147.209,0.13901
1147.691,0.216401
1148.173,0.296597
1148.655,0.429462
1149.137,0.503504
1149.619,0.337505
1150.102,0.126703
1150.584,0.123052
1151.066,0.248023
1151.548,0.29977
1152.03,0.246435
1152.512,0.212241
1152.994,0.268812
1153.476,0.318655
1153.958,0.257454
1154.441,0.234395
1154.923,0.43101
1155.405,0.685912
1155.887,0.75179
1156.369,0.666355
1156.851,0.59917
1157.333,0.569318
1157.815,0.606956
1158.297,0.902013
1158.78,1.016282
1159.262,0.584763
1159.744,0.149991
1160.226,0.148462
1160.708,0.394722
1161.19,0.543103
1161.672,0.583613
1162.154,0.567186
1162.637,0.412982
1163.119,0.356536
1163.601,0.458633
1164.083,0.587623
1164.565,0.726996
1165.047,0.809825
1165.529,0.719394
1166.011,0.536384
1166.494,0.626151
1166.976,1.11233
1167.458,1.282347
1167.94,1.075188
1168.422,0.841506
1168.904,0.65451
1169.386,0.503805
1169.868,0.369594
1170.35,0.327361
1170.833,0.550635
1171.315,0.965741
1171.797,1.135213
1172.279,1.0727
1172.761,0.89682
1173.243,0.637267
1173.725,0.470609
1174.207,0.461126
1174.689,0.437381
1175.172,0.213761
1175.654,0.025807001
1176.136,0.091302998
1176.618,0.407838
1177.1,0.573061
1177.582,0.617053
1178.064,0.708964
1178.546,0.858131
1179.029,0.877361
1179.511,0.666846
1179.993,0.429422
1180.475,0.28487
1180.957,0.271837
1181.439,0.550035
1181.921,0.887144
1182.403,1.006665
1182.885,0.936804
1183.368,0.742591
1183.85,0.468234
1184.332,0.340781
1184.814,0.535375
1185.296,0.742428
1185.778,0.897293
1186.26,0.956151
1186.742,0.808996
1187.225,0.616122
1187.707,0.484648
1188.189,0.417862
1188.671,0.411859
1189.153,0.480898
1189.635,0.55232
1190.117,0.673133
1190.599,0.716386
1191.082,0.605749
1191.564,0.495352
1192.046,0.463105
1192.528,0.48126
1193.01,0.562149
1193.492,0.683418
1193.974,0.615335
1194.456,0.288359
1194.938,0.181327
1195.421,0.345442
1195.903,0.531698
1196.385,0.671473
1196.867,0.748771
1197.349,0.761964
1197.831,0.724659
1198.313,0.618249
1198.795,0.46158
1199.277,0.337693
1199.76,0.255382
1200.242,0.285768
1200.724,0.419772
1201.206,0.578421
1201.688,0.72161
1202.17,0.749477
1202.652,0.527517
1203.134,0.280046
1203.617,0.368655
1204.099,0.556983
1204.581,0.442621
1205.063,0.193799
1205.545,0.193922
1206.027,0.41652
1206.509,0.519604
1206.991,0.368205
1207.474,0.25449
1207.956,0.388475
1208.438,0.527332
1208.92,0.552949
1209.402,0.526566
1209.884,0.466807
1210.366,0.406331
1210.848,0.42938
1211.33,0.517769
1211.813,0.440158
1212.295,0.049593002
1212.777,0.257446
1213.259,0.029154001
1213.741,0.261915
1214.223,0.613006
1214.705,0.855092
1215.187,0.847961
1215.669,0.686419
1216.152,0.532495
1216.634,0.387366
1217.116,0.252979
1217.598,0.115473
1218.08,0.226348
1218.562,0.630754
1219.044,0.807428
1219.526,0.567163
1220.009,0.345908
1220.491,0.515419
1220.973,0.818664
1221.455,0.769346
1221.937,0.526435
1222.419,0.534665
1222.901,0.686841
1223.383,0.643775
1223.865,0.429233
1224.348,0.314428
1224.83,0.389951
1225.312,0.533166
1225.794,0.740948
1226.276,0.836315
1226.758,0.559053
1227.24,0.237717
1227.722,0.147989
1228.204,0.207654
1228.687,0.348819
1229.169,0.513191
1229.651,0.557658
1230.133,0.421996
1230.615,0.352375
1231.097,0.473747
1231.579,0.539979
1232.061,0.427561
1232.544,0.348265
1233.026,0.428814
1233.508,0.538017
1233.99,0.537749
1234.472,0.43879
1234.954,0.264497
1235.436,0.014677
1235.918,0.16145
1236.401,0.169413
1236.883,0.104103
1237.365,0.024332
1237.847,0.163647
1238.329,0.289285
1238.811,0.340521
1239.293,0.20989
1239.775,0.024788
1240.257,0.068697996
1240.74,0.256635
1241.222,0.433006
1241.704,0.565348
1242.186,0.578764
1242.668,0.495483
1243.15,0.485385
1243.632,0.634322
1244.114,0.694308
1244.596,0.35163
1245.079,0.055996001
1245.561,0.168932
1246.043,0.374664
1246.525,0.421
1247.007,0.36804
1247.489,0.336932
1247.971,0.327136
1248.453,0.247959
1248.936,0.0024230001
1249.418,0.088716999
1249.9,0.020267
1250.382,0.173141
1250.864,0.464869
1251.346,0.728824
1251.828,0.905782
1252.31,0.934605
1252.792,0.687441
1253.275,0.273248
1253.757,0.189542
1254.239,0.399688
1254.721,0.422369
1255.203,0.261195
1255.685,0.137055
1256.167,0.098881997
1256.649,0.089176998
1257.131,0.077544004
1257.614,0.100521
1258.096,0.231942
1258.578,0.369633
1259.06,0.37204
1259.542,0.329717
1260.024,0.367804
1260.506,0.437516
1260.988,0.438888
1261.471,0.371006
1261.953,0.255063
1262.435,0.096394002
1262.917,0.077317998
1263.399,0.304851
1263.881,0.459816
1264.363,0.384305
1264.845,0.307986
1265.328,0.370391
1265.81,0.461345
1266.292,0.453415
1266.774,0.369568
1267.256,0.308013
1267.738,0.274749
1268.22,0.169752
1268.702,0.039404999
1269.184,0.055980999
1269.667,0.136593
1270.149,0.277852
1270.631,0.250304
1271.113,0.1847
1271.595,0.204201
1272.077,0.259645
1272.559,0.270206
1273.041,0.27489
1273.523,0.380933
1274.006,0.498188
1274.488,0.405308
1274.97,0.177763
1275.452,0.137947
1275.934,0.369755
1276.416,0.518757
1276.898,0.350302
1277.38,0.237153
1277.863,0.348364
1278.345,0.445871
1278.827,0.414778
1279.309,0.341906
1279.791,0.239923
1280.273,0.156384
1280.755,0.218536
1281.237,0.423375
1281.719,0.462158
1282.202,0.311788
1282.684,0.39134
1283.166,0.739109
1283.648,0.824703
1284.13,0.491168
1284.612,0.221138
1285.094,0.361407
1285.576,0.578191
1286.059,0.370853
1286.541,0.056811001
1287.023,0.0028019999
1287.505,0.0
