Raman shift,Intensity
433.25168,336.61649
435.46391,337.39741
437.67615,338.17832
439.88838,338.95923
442.10062,339.74014
444.31285,340.52106
446.52509,341.30197
448.73732,342.8638
450.94956,342.8638
453.1618,343.64471
455.37403,344.42562
457.58627,345.20653
459.7985,345.98745
462.01074,345.98745
464.22297,345.98745
466.43521,345.20653
468.64745,345.20653
470.85968,344.42562
473.07192,343.64471
475.28415,343.64471
477.49639,342.8638
479.70862,342.08288
481.92086,340.52106
484.1331,339.74014
486.34533,338.95923
488.55757,338.17832
490.7698,337.39741
492.98204,336.61649
495.19427,335.83558
497.40651,335.05467
499.61874,334.27376
501.83098,334.27376
504.04322,333.49284
506.25545,333.49284
508.46769,332.71193
510.67992,332.71193
512.89216,331.93102
515.10439,331.93102
517.31663,331.93102
519.52887,331.93102
521.7411,331.93102
523.95334,331.93102
526.16557,331.1501
528.37781,331.93102
530.59004,331.93102
532.80228,331.1501
535.01451,331.93102
537.22675,331.93102
539.43899,331.93102
541.65122,331.93102
543.86346,331.93102
546.07569,331.93102
548.28793,331.93102
550.50016,331.93102
552.7124,331.93102
554.92464,331.93102
557.13687,331.1501
559.34911,331.93102
561.56134,331.93102
563.77358,331.93102
565.98581,331.93102
568.19805,331.93102
570.41029,331.93102
572.62252,331.93102
574.83476,331.93102
577.04699,331.93102
579.25923,331.93102
581.47146,331.93102
583.6837,332.71193
585.89593,332.71193
588.10817,332.71193
590.32041,333.49284
592.53264,334.27376
594.74488,334.27376
596.95711,334.27376
599.16935,335.05467
601.38158,335.83558
603.59382,335.83558
605.80606,336.61649
608.01829,337.39741
610.23053,338.17832
612.44276,338.17832
625.87586,339.88624
668.33742,332.61993
712.0857,334.89065
762.87479,331.1501
765.08702,331.1501
767.29926,331.1501
769.51149,331.1501
771.72373,331.1501
773.93596,331.1501
776.1482,331.1501
778.36044,331.1501
780.57267,331.93102
782.78491,332.71193
784.99714,332.71193
787.20938,332.71193
789.42161,332.71193
791.63385,331.93102
793.84609,331.1501
796.05832,330.36919
798.27056,329.58828
800.48279,329.58828
802.69503,330.36919
804.90726,330.36919
807.1195,329.58828
809.33173,329.58828
811.54397,329.58828
813.75621,329.58828
815.96844,329.58828
818.18068,330.36919
820.39291,331.1501
822.60515,331.93102
824.81738,332.71193
827.02962,332.71193
829.24186,332.71193
831.45409,332.71193
833.66633,332.71193
835.87856,332.71193
838.0908,332.71193
840.30303,332.71193
842.51527,332.71193
844.72751,332.71193
846.93974,332.71193
849.15198,332.71193
851.36421,332.71193
853.57645,332.71193
855.78868,331.93102
858.00092,331.1501
860.21315,330.36919
862.42539,329.58828
864.63763,329.58828
866.84986,329.58828
869.0621,330.36919
871.27433,330.36919
873.48657,330.36919
875.6988,330.36919
877.91104,330.36919
880.12328,330.36919
882.33551,330.36919
884.54775,330.36919
886.75998,330.36919
888.97222,330.36919
891.18445,330.36919
893.39669,330.36919
895.60892,330.36919
897.82116,330.36919
900.0334,330.36919
902.24563,330.36919
904.45787,330.36919
906.6701,330.36919
908.88234,330.36919
911.09457,331.1501
913.30681,331.1501
915.51905,331.1501
917.73128,331.1501
919.94352,331.1501
922.15575,331.1501
924.36799,331.1501
926.58022,331.1501
928.79246,331.1501
931.0047,331.1501
933.21693,331.1501
935.42917,331.1501
937.6414,331.93102
939.85364,334.27376
939.85364,335.05467
939.85364,331.93102
939.85364,332.71193
939.85364,333.49284
939.85364,335.83558
942.06587,335.83558
944.27811,335.83558
946.49034,335.83558
946.49034,339.74014
948.70258,342.8638
948.70258,342.08288
948.70258,341.30197
948.70258,340.52106
948.70258,335.83558
948.70258,338.95923
948.70258,345.20653
948.70258,344.42562
950.91482,345.98745
950.91482,336.61649
950.91482,343.64471
950.91482,335.83558
950.91482,346.76836
950.91482,338.17832
953.12705,337.39741
953.12705,347.54927
953.12705,350.67292
953.12705,336.61649
953.12705,349.89201
953.12705,353.79657
953.12705,353.01566
953.12705,352.23475
953.12705,349.1111
955.33929,348.33019
955.33929,351.45384
955.33929,355.3584
955.33929,358.48205
955.33929,354.57749
955.33929,357.70114
955.33929,356.92023
957.55152,359.26296
957.55152,360.04388
957.55152,360.82479
957.55152,361.6057
957.55152,362.38662
957.55152,363.16753
957.55152,363.94844
957.55152,356.13931
957.55152,365.51027
957.55152,364.72935
959.76376,367.07209
959.76376,367.85301
959.76376,368.63392
959.76376,369.41483
959.76376,370.19574
959.76376,370.97666
959.76376,371.75757
959.76376,372.53848
959.76376,366.29118
961.97599,373.31939
961.97599,374.88122
961.97599,375.66213
961.97599,376.44305
961.97599,377.22396
961.97599,378.00487
961.97599,378.78578
961.97599,379.5667
961.97599,380.34761
961.97599,374.10031
961.97599,381.12852
964.18823,382.69035
964.18823,381.90944
964.18823,384.25217
964.18823,388.15674
964.18823,385.814
964.18823,386.59491
964.18823,387.37582
964.18823,383.47126
966.40047,385.03309
966.40047,389.71856
966.40047,390.49948
966.40047,388.93765
966.40047,392.0613
966.40047,392.84221
966.40047,393.62313
966.40047,394.40404
966.40047,395.18495
966.40047,391.28039
968.6127,399.87043
968.6127,400.65134
968.6127,402.21317
968.6127,398.3086
968.6127,397.52769
968.6127,401.43226
968.6127,395.96587
968.6127,396.74678
970.82494,405.33682
970.82494,404.55591
970.82494,399.08952
970.82494,402.99408
970.82494,406.11773
970.82494,406.89864
970.82494,407.67956
970.82494,408.46047
970.82494,409.24138
970.82494,410.0223
970.82494,410.80321
970.82494,403.77499
973.03717,412.36503
973.03717,411.58412
973.03717,413.92686
973.03717,417.05051
973.03717,415.48869
973.03717,413.14595
973.03717,417.83142
973.03717,416.2696
975.24941,418.61234
975.24941,419.39325
975.24941,414.70777
975.24941,420.95507
975.24941,421.73599
975.24941,422.5169
975.24941,423.29781
975.24941,424.07873
975.24941,420.17416
977.46164,425.64055
977.46164,424.85964
977.46164,427.20238
977.46164,426.42146
979.67388,428.7642
979.67388,427.98329
981.88611,431.88785
981.88611,432.66877
981.88611,429.54512
984.09835,430.32603
984.09835,433.44968
984.09835,434.23059
984.09835,435.01151
984.09835,431.10694
986.31059,436.57333
986.31059,435.79242
988.52282,437.35424
990.73506,438.13516
990.73506,439.69698
990.73506,438.91607
1004.00847,424.85964
1004.00847,425.64055
1004.00847,420.95507
1004.00847,426.42146
1006.22071,427.20238
1006.22071,422.5169
1006.22071,424.07873
1006.22071,423.29781
1006.22071,420.17416
1006.22071,419.39325
1006.22071,418.61234
1006.22071,417.83142
1006.22071,421.73599
1008.43294,416.2696
1008.43294,415.48869
1008.43294,414.70777
1008.43294,417.05051
1008.43294,413.14595
1008.43294,412.36503
1008.43294,411.58412
1008.43294,410.80321
1008.43294,410.0223
1008.43294,381.12852
1008.43294,380.34761
1008.43294,413.92686
1010.64518,375.66213
1010.64518,374.88122
1010.64518,379.5667
1010.64518,378.78578
1010.64518,378.00487
1010.64518,377.22396
1010.64518,376.44305
1010.64518,374.10031
1010.64518,381.90944
1010.64518,403.77499
1010.64518,408.46047
1010.64518,407.67956
1010.64518,405.33682
1010.64518,406.11773
1010.64518,406.89864
1010.64518,409.24138
1010.64518,404.55591
1012.85741,399.87043
1012.85741,402.99408
1012.85741,382.69035
1012.85741,402.21317
1012.85741,373.31939
1012.85741,372.53848
1012.85741,367.07209
1012.85741,367.85301
1012.85741,368.63392
1012.85741,369.41483
1012.85741,370.19574
1012.85741,370.97666
1012.85741,371.75757
1012.85741,399.08952
1012.85741,398.3086
1012.85741,397.52769
1012.85741,401.43226
1012.85741,400.65134
1015.06965,360.04388
1015.06965,394.40404
1015.06965,396.74678
1015.06965,392.84221
1015.06965,392.0613
1015.06965,391.28039
1015.06965,395.96587
1015.06965,393.62313
1015.06965,395.18495
1015.06965,383.47126
1015.06965,363.94844
1015.06965,364.72935
1015.06965,365.51027
1015.06965,366.29118
1015.06965,361.6057
1015.06965,360.82479
1015.06965,390.49948
1015.06965,389.71856
1015.06965,362.38662
1017.28189,358.48205
1017.28189,386.59491
1017.28189,385.03309
1017.28189,384.25217
1017.28189,385.814
1017.28189,363.16753
1017.28189,388.93765
1017.28189,388.15674
1017.28189,387.37582
1017.28189,356.13931
1017.28189,356.92023
1017.28189,359.26296
1019.49412,355.3584
1019.49412,357.70114
1021.70636,353.79657
1021.70636,349.89201
1021.70636,352.23475
1021.70636,351.45384
1021.70636,350.67292
1021.70636,348.33019
1021.70636,349.1111
1021.70636,354.57749
1023.91859,347.54927
1023.91859,346.76836
1023.91859,345.20653
1023.91859,344.42562
1023.91859,353.01566
1026.13083,343.64471
1026.13083,345.98745
1026.13083,342.8638
1026.13083,342.08288
1028.34306,341.30197
1028.34306,340.52106
1030.5553,340.52106
1032.76753,340.52106
1034.97977,340.52106
1037.19201,340.52106
1039.40424,338.17832
1039.40424,340.52106
1039.40424,339.74014
1039.40424,337.39741
1039.40424,336.61649
1039.40424,335.83558
1039.40424,335.05467
1039.40424,334.27376
1039.40424,338.95923
1041.61648,333.49284
1041.61648,334.27376
1043.82871,333.49284
1046.04095,332.71193
1046.04095,333.49284
1048.25318,332.71193
1050.46542,333.49284
1052.67766,334.27376
1054.88989,335.05467
1057.10213,335.83558
1059.31436,335.83558
1061.5266,335.05467
1063.73883,334.27376
1065.95107,333.49284
1068.16331,332.71193
1070.37554,333.49284
1072.58778,333.49284
1074.80001,333.49284
1077.01225,334.27376
1079.22448,334.27376
1081.43672,335.05467
1083.64895,335.05467
1085.86119,335.05467
1088.07343,335.83558
1090.28566,335.83558
1092.4979,335.83558
1094.71013,336.61649
1096.92237,336.61649
1099.1346,336.61649
1101.34684,336.61649
1103.55908,336.61649
1105.77131,336.61649
1107.98355,337.39741
1110.19578,338.17832
1110.19578,338.95923
1110.19578,339.74014
1110.19578,340.52106
1110.19578,341.30197
1110.19578,337.39741
1112.40802,342.08288
1112.40802,341.30197
1114.62025,342.08288
1116.83249,342.8638
1116.83249,342.08288
1119.04472,343.64471
1119.04472,342.8638
1121.25696,343.64471
1121.25696,344.42562
1123.4692,344.42562
1125.68143,344.42562
1127.89367,344.42562
1127.89367,345.20653
1127.89367,345.98745
1130.1059,345.98745
1130.1059,346.76836
1132.31814,346.76836
1132.31814,347.54927
1134.53037,347.54927
1134.53037,348.33019
1136.74261,348.33019
1136.74261,349.1111
1138.95485,349.1111
1141.16708,349.1111
1143.37932,349.89201
1145.59155,349.89201
1147.80379,349.89201
1150.01602,349.89201
1152.22826,349.1111
1154.4405,349.1111
1154.4405,348.33019
1154.4405,347.54927
1154.4405,346.76836
1154.4405,345.98745
1156.65273,345.98745
1156.65273,345.20653
1158.86497,345.20653
1158.86497,344.42562
1161.0772,344.42562
1161.0772,343.64471
1163.28944,343.64471
1163.28944,342.8638
1165.50167,342.8638
1165.50167,342.08288
1167.71391,342.08288
1167.71391,341.30197
1169.92614,341.30197
1169.92614,340.52106
1172.13838,339.74014
1174.35062,338.95923
1176.56285,338.17832
1178.77509,337.39741
1180.98732,336.61649
1183.19956,335.83558
1185.41179,335.83558
1187.62403,335.83558
1187.62403,335.05467
1189.83627,335.05467
1192.0485,335.05467
1192.0485,334.27376
1194.26074,334.27376
1194.26074,333.49284
1196.47297,333.49284
1198.68521,333.49284
1200.89744,334.27376
1203.10968,335.05467
1205.32192,335.83558
1207.53415,335.05467
1209.74639,335.05467
1211.95862,335.05467
1214.17086,335.05467
1216.38309,335.05467
1218.59533,335.05467
1220.80756,335.05467
1223.0198,334.27376
1225.23204,334.27376
1227.44427,334.27376
1229.65651,334.27376
1231.86874,334.27376
1234.08098,334.27376
1236.29321,334.27376
1238.50545,334.27376
1240.71769,334.27376
1242.92992,333.49284
1245.14216,332.71193
1247.35439,331.93102
1249.56663,332.71193
1251.77886,333.49284
1253.9911,334.27376
1256.20333,334.27376
1258.41557,334.27376
1260.62781,334.27376
1262.84004,334.27376
1265.05228,334.27376
1267.26451,334.27376
1269.47675,334.27376
1271.68898,334.27376
1273.90122,334.27376
1276.11346,333.49284
1278.32569,333.49284
1280.53793,333.49284
1282.75016,333.49284
1284.9624,333.49284
1287.17463,333.49284
1289.38687,333.49284
1291.59911,333.49284
1293.81134,333.49284
1296.02358,332.71193
1298.23581,331.93102
1300.44805,331.1501
1302.66028,330.36919
1304.87252,330.36919
1307.08475,330.36919
1309.29699,330.36919
1311.50923,330.36919
1313.72146,330.36919
1315.9337,330.36919
1318.14593,330.36919
1320.35817,330.36919
1322.5704,330.36919
1324.78264,331.1501
1326.99488,331.93102
1329.20711,332.71193
1331.41935,333.49284
1333.63158,333.49284
1335.84382,333.49284
1338.05605,333.49284
1340.26829,333.49284
1342.48052,333.49284
1344.69276,333.49284
1346.905,333.49284
1349.11723,332.71193
1351.32947,332.71193
1353.5417,332.71193
1355.75394,332.71193
1357.96617,332.71193
1360.17841,332.71193
1362.39065,332.71193
1364.60288,332.71193
1366.81512,332.71193
1369.02735,331.93102
1371.23959,331.1501
1373.45182,330.36919
1375.66406,329.58828
1377.8763,329.58828
1380.08853,329.58828
1382.30077,329.58828
1384.513,329.58828
1386.72524,329.58828
1388.93747,329.58828
1391.14971,329.58828
1393.36194,329.58828
1395.57418,329.58828
1397.78642,329.58828
1399.99865,329.58828
1402.21089,329.58828
1404.42312,329.58828
1406.63536,329.58828
1408.84759,329.58828
1411.05983,329.58828
1413.27207,329.58828
1415.4843,329.58828
1417.69654,329.58828
1419.90877,329.58828
1422.12101,329.58828
1424.33324,329.58828
1426.54548,329.58828
1428.75772,329.58828
1430.96995,329.58828
1433.18219,329.58828
1435.39442,329.58828
1437.60666,329.58828
1439.81889,329.58828
1442.03113,329.58828
1444.24336,329.58828
1446.4556,329.58828
1448.66784,329.58828
1450.88007,329.58828
1453.09231,329.58828
1455.30454,329.58828
1457.51678,329.58828
1459.72901,329.58828
1461.94125,329.58828
1464.15349,329.58828
1466.36572,329.58828
1468.57796,329.58828
1470.79019,329.58828
1473.00243,329.58828
1475.21466,329.58828
1477.4269,329.58828
1479.63913,329.58828
1481.85137,329.58828
1484.06361,329.58828
1486.27584,329.58828
1488.48808,329.58828
1490.70031,329.58828
1492.91255,329.58828
1495.12478,329.58828
1497.33702,329.58828
1499.54926,329.58828
1501.76149,329.58828
1503.97373,329.58828
1506.18596,329.58828
1508.3982,329.58828
1510.61043,329.58828
1512.82267,329.58828
1515.03491,329.58828
1517.24714,329.58828
1519.45938,329.58828
1521.67161,329.58828
1523.88385,329.58828
1526.09608,329.58828
1528.30832,329.58828
1530.52055,329.58828
1532.73279,329.58828
1534.94503,329.58828
1537.15726,329.58828
1539.3695,329.58828
1541.58173,329.58828
1543.79397,329.58828
1546.0062,329.58828
1548.21844,329.58828
1550.43068,329.58828
1552.64291,330.36919
1554.85515,331.1501
1557.06738,330.36919
1559.27962,329.58828
1561.49185,329.58828
1563.70409,330.36919
1565.91633,331.1501
1568.12856,331.93102
1570.3408,332.71193
1572.55303,332.71193
1574.76527,332.71193
1576.9775,332.71193
1579.18974,332.71193
1581.40197,331.93102
1583.61421,331.1501
1585.82645,330.36919
1588.03868,329.58828
1590.25092,329.58828
1592.46315,329.58828
1594.67539,329.58828
1596.88762,329.58828
1599.09986,329.58828
1601.3121,329.58828
1603.52433,329.58828
1605.73657,329.58828
1607.9488,329.58828
1610.16104,329.58828
1612.37327,329.58828
1614.58551,329.58828
1616.79774,329.58828
1619.00998,329.58828
1621.22222,329.58828
1623.43445,329.58828
1625.64669,329.58828
1627.85892,329.58828
1630.07116,329.58828
1632.28339,329.58828
1634.49563,329.58828
1636.70787,329.58828
1638.9201,329.58828
1641.13234,329.58828
1643.34457,329.58828
1645.55681,329.58828
1647.76904,329.58828
1649.98128,329.58828
1652.19352,329.58828
1654.40575,329.58828
1656.61799,329.58828
1658.83022,329.58828
1661.04246,329.58828
1663.25469,329.58828
1665.46693,329.58828
1667.67916,329.58828
1669.8914,329.58828
1672.10364,329.58828
1674.31587,329.58828
1676.52811,329.58828
1678.74034,329.58828
1680.95258,329.58828
1683.16481,329.58828
1685.37705,329.58828
1687.58929,329.58828
1689.80152,329.58828
1692.01376,329.58828
1694.22599,329.58828
1696.43823,329.58828
1698.65046,329.58828
1700.8627,329.58828
1703.07493,329.58828
1705.28717,329.58828
1707.49941,329.58828
1709.71164,329.58828
1711.92388,329.58828
1714.13611,329.58828
1716.34835,329.58828
1718.56058,329.58828
1720.77282,329.58828
1722.98506,329.58828
1725.19729,329.58828
1727.40953,329.58828
1729.62176,329.58828
1731.834,329.58828
1734.04623,329.58828
1736.25847,329.58828
1738.47071,329.58828
1740.68294,329.58828
1742.89518,329.58828
1745.10741,329.58828
1747.31965,329.58828
1749.53188,329.58828
1751.74412,329.58828
1753.95635,329.58828
1756.16859,329.58828
1758.38083,329.58828
1760.59306,329.58828
1762.8053,329.58828
1765.01753,329.58828
1767.22977,329.58828
1769.442,329.58828
1771.65424,329.58828
1773.86648,329.58828
1776.07871,329.58828
1778.29095,329.58828
1780.50318,329.58828
1782.71542,329.58828
1784.92765,329.58828
1787.13989,329.58828
1789.35213,329.58828
1791.56436,329.58828
1793.7766,329.58828
1795.98883,329.58828
1798.20107,329.58828
1800.4133,329.58828
1802.62554,329.58828
1804.83777,329.58828
1807.05001,329.58828
1809.26225,329.58828
1811.47448,329.58828
1813.68672,329.58828
1815.89895,329.58828
1818.11119,329.58828
1820.32342,329.58828
1822.53566,329.58828
1824.7479,329.58828
1826.96013,329.58828
1829.17237,329.58828
1831.3846,329.58828
1833.59684,329.58828
1835.80907,329.58828
1838.02131,329.58828
1840.23354,329.58828
1842.44578,329.58828
1844.65802,329.58828
1846.87025,329.58828
1849.08249,329.58828
1851.29472,329.58828
1853.50696,329.58828
1855.71919,329.58828
1857.93143,329.58828
1860.14367,329.58828
1862.3559,329.58828
1864.56814,329.58828
1866.78037,329.58828
1868.99261,329.58828
1871.20484,329.58828
1873.41708,329.58828
1875.62932,329.58828
1877.84155,329.58828
1880.05379,329.58828
1882.26602,329.58828
1884.47826,329.58828
1886.69049,329.58828
1888.90273,329.58828
1891.11496,329.58828
1893.3272,329.58828
1895.53944,329.58828
1897.75167,329.58828
1899.96391,329.58828
1902.17614,329.58828
1904.38838,329.58828
1906.60061,329.58828
1908.81285,329.58828
1911.02509,329.58828
1913.23732,329.58828
1915.44956,329.58828
1917.66179,329.58828
1919.87403,329.58828
1922.08626,329.58828
1924.2985,329.58828
1926.51073,329.58828
1928.72297,329.58828
1930.93521,329.58828
1933.14744,329.58828
1935.35968,329.58828
1937.57191,329.58828
1939.78415,329.58828
1941.99638,329.58828
1944.20862,329.58828
1946.42086,329.58828
1948.63309,329.58828
1950.84533,329.58828
1953.05756,329.58828
1955.2698,329.58828
1957.48203,329.58828
1959.69427,329.58828
1961.90651,329.58828
1964.11874,329.58828
1966.33098,329.58828
1968.54321,329.58828
1970.75545,329.58828
1972.96768,329.58828
1975.17992,329.58828
1977.39215,329.58828
1979.60439,329.58828
1981.81663,329.58828
1984.02886,329.58828
1986.2411,329.58828
1988.45333,329.58828
1990.66557,329.58828
1992.8778,329.58828
1995.09004,329.58828
1997.30228,329.58828
1999.51451,329.58828
2001.72675,329.58828
2003.93898,329.58828
2006.15122,329.58828
2008.36345,329.58828
2010.57569,329.58828
2012.78793,329.58828
2015.00016,329.58828
2017.2124,329.58828
2019.42463,329.58828
2021.63687,329.58828
2023.8491,329.58828
2026.06134,329.58828
2028.27357,329.58828
2030.48581,329.58828
2032.69805,329.58828
2034.91028,329.58828
2037.12252,329.58828
2039.33475,329.58828
2041.54699,329.58828
2043.75922,329.58828
2045.97146,329.58828
2048.1837,329.58828
2050.39593,329.58828
2052.60817,329.58828
2054.8204,329.58828
2057.03264,329.58828
2059.24487,329.58828
2061.45711,329.58828
2063.66934,329.58828
2065.88158,329.58828
2068.09382,329.58828
2070.30605,329.58828
2072.51829,329.58828
2074.73052,329.58828
2076.94276,329.58828
2079.15499,329.58828
2081.36723,329.58828
2083.57947,329.58828
2085.7917,329.58828
2088.00394,329.58828
2090.21617,329.58828
2092.42841,329.58828
2094.64064,329.58828
2096.85288,329.58828
2099.06512,329.58828
2101.27735,329.58828
2103.48959,329.58828
2105.70182,329.58828
2107.91406,329.58828
2110.12629,329.58828
2112.33853,329.58828
2114.55076,329.58828
2116.763,329.58828
2118.97524,329.58828
2121.18747,329.58828
2123.39971,329.58828
2125.61194,329.58828
2127.82418,329.58828
2130.03641,329.58828
2132.24865,329.58828
2134.46089,330.36919
2136.67312,331.1501
2138.88536,331.93102
2141.09759,332.71193
2143.30983,332.71193
2145.52206,332.71193
2147.7343,332.71193
2149.94654,332.71193
2152.15877,332.71193
2154.37101,331.93102
2156.58324,331.1501
2158.79548,330.36919
2161.00771,330.36919
2163.21995,330.36919
2165.43218,330.36919
2167.64442,330.36919
2169.85666,330.36919
2172.06889,330.36919
2174.28113,329.58828
2176.49336,328.80737
2178.7056,328.80737
2180.91783,328.80737
2183.13007,328.80737
2185.34231,328.80737
2187.55454,328.80737
2189.76678,328.80737
2191.97901,328.80737
2194.19125,328.80737
2196.40348,328.80737
2198.61572,328.80737
2200.82795,328.80737
2203.04019,328.80737
2205.25243,328.80737
2207.46466,328.80737
2209.6769,328.80737
2211.88913,328.80737
2214.10137,328.80737
2216.3136,328.80737
2218.52584,328.80737
2220.73808,328.80737
2222.95031,328.80737
2225.16255,328.80737
2227.37478,328.80737
2229.58702,328.80737
2231.79925,328.80737
2234.01149,328.80737
2236.22373,328.80737
2238.43596,328.80737
2240.6482,328.80737
2242.86043,328.80737
2245.07267,328.80737
2247.2849,328.80737
2249.49714,328.80737
2251.70937,328.80737
2253.92161,328.80737
2256.13385,328.80737
2258.34608,328.80737
2260.55832,328.80737
2262.77055,328.80737
2264.98279,328.80737
2267.19502,328.80737
2269.40726,328.80737
2271.6195,328.80737
2273.83173,328.80737
2276.04397,328.80737
2278.2562,328.80737
2280.46844,328.80737
2282.68067,328.80737
2284.89291,328.80737
2287.10514,328.80737
2289.31738,328.80737
2291.52962,328.80737
2293.74185,328.80737
2295.95409,328.80737
2298.16632,328.80737
2300.37856,328.80737
2302.59079,328.80737
2304.80303,328.80737
2307.01527,328.80737
2309.2275,329.58828
2311.43974,329.58828
2313.65197,329.58828
2315.86421,329.58828
2318.07644,329.58828
2320.28868,329.58828
2322.50092,329.58828
2324.71315,328.80737
2326.92539,328.80737
2329.13762,328.80737
2331.34986,328.80737
2333.56209,328.80737
2335.77433,329.58828
2337.98656,328.80737
2340.1988,328.80737
2342.41104,328.80737
2344.62327,329.58828
2346.83551,330.36919
2349.04774,331.1501
2351.25998,331.93102
2353.47221,331.93102
2355.68445,331.1501
2357.89669,331.1501
2360.10892,331.1501
2362.32116,331.1501
2364.53339,331.1501
2366.74563,331.1501
2368.95786,330.36919
2371.1701,329.58828
2373.38234,328.80737
2375.59457,328.80737
2377.80681,328.80737
2380.01904,328.80737
2382.23128,328.80737
2384.44351,328.80737
2386.65575,328.80737
2388.86798,328.80737
2391.08022,328.80737
2393.29246,328.80737
2395.50469,328.80737
2397.71693,328.80737
2399.92916,328.80737
2402.1414,328.80737
2404.35363,328.80737
2406.56587,328.80737
2408.77811,328.80737
2410.99034,328.80737
2413.20258,328.80737
2415.41481,328.80737
2417.62705,328.80737
2419.83928,328.80737
2422.05152,328.80737
2424.26375,328.80737
2426.47599,328.80737
2428.68823,328.80737
2430.90046,328.80737
2433.1127,328.80737
2435.32493,328.80737
2437.53717,328.80737
2439.7494,328.80737
2441.96164,328.80737
2444.17388,328.80737
2446.38611,328.80737
2448.59835,328.80737
2450.81058,328.80737
2453.02282,328.80737
2455.23505,328.80737
2457.44729,328.80737
2459.65953,328.80737
2461.87176,328.80737
2464.084,328.80737
2466.29623,328.80737
2468.50847,328.80737
2470.7207,328.80737
2472.93294,328.80737
2475.14517,328.80737
2477.35741,328.80737
2479.56965,328.80737
2481.78188,328.80737
2483.99412,328.80737
2486.20635,328.80737
2488.41859,328.80737
2490.63082,328.80737
2492.84306,328.80737
2495.0553,328.80737
2497.26753,328.80737
2499.47977,328.80737
2501.692,328.80737
2503.90424,328.80737
2506.11647,328.80737
2508.32871,328.80737
2510.54095,328.80737
2512.75318,328.80737
2514.96542,328.80737
2517.17765,328.80737
2519.38989,328.80737
2521.60212,328.80737
2523.81436,328.80737
2526.02659,328.80737
2528.23883,328.80737
2530.45107,328.80737
2532.6633,328.80737
2534.87554,328.80737
2537.08777,328.80737
2539.30001,328.80737
2541.51224,328.80737
2543.72448,328.80737
2545.93672,328.80737
2548.14895,328.80737
2550.36119,328.80737
2552.57342,328.80737
2554.78566,328.80737
2556.99789,328.80737
2559.21013,328.80737
2561.42236,328.80737
2563.6346,328.80737
2565.84684,328.80737
2568.05907,328.80737
2570.27131,328.80737
2572.48354,328.80737
2574.69578,328.80737
2576.90801,328.80737
2579.12025,328.80737
2581.33249,328.80737
2583.54472,328.80737
2585.75696,328.80737
2587.96919,329.58828
2590.18143,329.58828
2592.39366,329.58828
2594.6059,329.58828
2596.81814,329.58828
2599.03037,329.58828
2601.24261,329.58828
2603.45484,329.58828
2605.66708,329.58828
2607.87931,329.58828
2610.09155,329.58828
2612.30378,329.58828
2614.51602,329.58828
2616.72826,329.58828
2618.94049,329.58828
2621.15273,329.58828
2623.36496,329.58828
2625.5772,329.58828
2627.78943,329.58828
2630.00167,329.58828
2632.21391,329.58828
2634.42614,329.58828
2636.63838,329.58828
2638.85061,329.58828
2641.06285,329.58828
2643.27508,329.58828
2645.48732,329.58828
2647.69955,329.58828
2649.91179,329.58828
2652.12403,329.58828
2654.33626,329.58828
2656.5485,329.58828
2658.76073,329.58828
2660.97297,329.58828
2663.1852,329.58828
2665.39744,329.58828
2667.60968,329.58828
2669.82191,329.58828
2672.03415,329.58828
2674.24638,329.58828
2676.45862,329.58828
2678.67085,329.58828
2680.88309,329.58828
2683.09533,329.58828
2685.30756,329.58828
2687.5198,329.58828
2689.73203,329.58828
2691.94427,329.58828
2694.1565,329.58828
2696.36874,329.58828
2698.58097,329.58828
2700.79321,329.58828
2703.00545,329.58828
2705.21768,329.58828
2707.42992,329.58828
2709.64215,329.58828
2711.85439,329.58828
2714.06662,329.58828
2716.27886,329.58828
2718.4911,329.58828
2720.70333,329.58828
2722.91557,329.58828
2725.1278,329.58828
2727.34004,329.58828
2729.55227,329.58828
2731.76451,329.58828
2733.97675,329.58828
2736.18898,329.58828
2738.40122,329.58828
2740.61345,329.58828
2742.82569,329.58828
2745.03792,329.58828
2747.25016,329.58828
2749.46239,329.58828
2751.67463,329.58828
2753.88687,329.58828
2756.0991,329.58828
2758.31134,329.58828
2760.52357,329.58828
2762.73581,329.58828
2764.94804,329.58828
2767.16028,329.58828
2769.37252,329.58828
2771.58475,329.58828
2773.79699,329.58828
2776.00922,329.58828
2778.22146,329.58828
2780.43369,329.58828
2782.64593,329.58828
2784.85816,329.58828
2787.0704,329.58828
2789.28264,329.58828
2791.49487,329.58828
2793.70711,329.58828
2795.91934,329.58828
2798.13158,329.58828
2800.34381,329.58828
2802.55605,329.58828
2804.76829,329.58828
2806.98052,329.58828
2809.19276,329.58828
2811.40499,329.58828
2813.61723,329.58828
2815.82946,329.58828
2818.0417,329.58828
2820.25394,329.58828
2822.46617,329.58828
2824.67841,329.58828
2826.89064,329.58828
2829.10288,329.58828
2831.31511,329.58828
2833.52735,329.58828
2835.73958,329.58828
2837.95182,329.58828
2840.16406,329.58828
2842.37629,329.58828
2844.58853,329.58828
2846.80076,329.58828
2849.013,329.58828
2851.22523,329.58828
2853.43747,329.58828
2855.64971,329.58828
2857.86194,329.58828
2860.07418,329.58828
2862.28641,329.58828
2864.49865,329.58828
2866.71088,329.58828
2868.92312,329.58828
2871.13536,329.58828
2873.34759,329.58828
2875.55983,329.58828
2877.77206,329.58828
2879.9843,329.58828
2882.19653,329.58828
2884.40877,329.58828
2886.621,329.58828
2888.83324,329.58828
2891.04548,329.58828
2893.25771,329.58828
2895.46995,329.58828
2897.68218,329.58828
2899.89442,329.58828
2902.10665,329.58828
2904.31889,329.58828
2906.53113,329.58828
2908.74336,329.58828
2910.9556,329.58828
2913.16783,329.58828
2915.38007,329.58828
2917.5923,329.58828
2919.80454,329.58828
2922.01677,329.58828
2924.22901,329.58828
2926.44125,329.58828
2928.65348,329.58828
2930.86572,329.58828
2933.07795,329.58828
2935.29019,329.58828
2937.50242,329.58828
2939.71466,329.58828
2941.9269,329.58828
2944.13913,329.58828
2946.35137,329.58828
2948.5636,329.58828
2950.77584,329.58828
2952.98807,329.58828
2955.20031,329.58828
2957.41255,329.58828
2959.62478,329.58828
2961.83702,329.58828
2964.04925,329.58828
2966.26149,329.58828
2968.47372,329.58828
2970.68596,329.58828
2972.89819,329.58828
2975.11043,329.58828
2977.32267,329.58828
2979.5349,329.58828
2981.74714,329.58828
2983.95937,329.58828
2986.17161,329.58828
2988.38384,329.58828
2990.59608,329.58828
2992.80832,329.58828
2995.02055,329.58828
2997.23279,329.58828
2999.44502,329.58828
3001.65726,329.58828
3003.86949,329.58828
3006.08173,329.58828
3008.29396,329.58828
3010.5062,329.58828
3012.71844,329.58828
3014.93067,329.58828
3017.14291,329.58828
3019.35514,329.58828
3021.56738,329.58828
3023.77961,329.58828
3025.99185,329.58828
3028.20409,329.58828
3030.41632,329.58828
3032.62856,329.58828
3034.84079,329.58828
3037.05303,329.58828
3039.26526,329.58828
3041.4775,329.58828
3043.68974,329.58828
3045.90197,329.58828
3048.11421,329.58828
3050.32644,329.58828
3052.53868,329.58828
3054.75091,329.58828
3056.96315,329.58828
3059.17538,329.58828
3061.38762,329.58828
3063.59986,329.58828
3065.81209,329.58828
3068.02433,329.58828
3070.23656,329.58828
3072.4488,329.58828
3074.66103,329.58828
3076.87327,329.58828
3079.08551,329.58828
3081.29774,329.58828
3083.50998,329.58828
3085.72221,329.58828
3087.93445,329.58828
3090.14668,329.58828
3092.35892,329.58828
3094.57116,329.58828
3096.78339,329.58828
3098.99563,329.58828
3101.20786,329.58828
3103.4201,329.58828
3105.63233,329.58828
3107.84457,329.58828
3110.0568,329.58828
3112.26904,329.58828
3114.48128,329.58828
3116.69351,329.58828
3118.90575,329.58828
3121.11798,329.58828
3123.33022,329.58828
3125.54245,329.58828
3127.75469,329.58828
3129.96693,329.58828
3132.17916,329.58828
3134.3914,329.58828
3136.60363,329.58828
3138.81587,329.58828
3141.0281,329.58828
3143.24034,329.58828
3145.45257,329.58828
3147.66481,329.58828
3149.87705,329.58828
3152.08928,329.58828
3154.30152,329.58828
3156.51375,329.58828
3158.72599,329.58828
3160.93822,329.58828
3163.15046,329.58828
3165.3627,329.58828
3167.57493,329.58828
3169.78717,329.58828
3171.9994,330.36919
3174.21164,330.36919
3176.42387,329.58828
3178.63611,329.58828
3180.84835,329.58828
3183.06058,329.58828
3185.27282,329.58828
3187.48505,329.58828
3189.69729,329.58828
3191.90952,329.58828
3194.12176,329.58828
3196.33399,330.36919
3198.54623,330.36919
3200.75847,330.36919
3202.9707,330.36919
3205.18294,330.36919
3207.39517,330.36919
3209.60741,330.36919
3211.81964,330.36919
3214.03188,331.1501
3216.24412,331.93102
3218.45635,332.71193
3220.66859,333.49284
3222.88082,333.49284
3225.09306,333.49284
3227.30529,332.71193
3229.51753,331.93102
3231.72976,331.1501
3233.942,330.36919
3236.15424,330.36919
3238.36647,330.36919
3240.57871,330.36919
3242.79094,330.36919
3245.00318,330.36919
3247.21541,330.36919
3249.42765,330.36919
3251.63989,330.36919
3253.85212,330.36919
3256.06436,330.36919
3258.27659,330.36919
3260.48883,330.36919
3262.70106,330.36919
3264.9133,330.36919
3267.12554,330.36919
3269.33777,330.36919
3271.55001,330.36919
3273.76224,330.36919
3275.97448,330.36919
3278.18671,330.36919
3280.39895,330.36919
3282.61118,330.36919
3284.82342,330.36919
3287.03566,330.36919
3289.24789,330.36919
3291.46013,330.36919
3293.67236,330.36919
3295.8846,330.36919
3298.09683,330.36919
3300.30907,330.36919
3302.52131,330.36919
3304.73354,330.36919
3306.94578,330.36919
3309.15801,330.36919
3311.37025,330.36919
3313.58248,330.36919
3315.79472,330.36919
3318.00696,330.36919
3320.21919,330.36919
3322.43143,330.36919
3324.64366,330.36919
3326.8559,330.36919
3329.06813,330.36919
3331.28037,330.36919
3333.4926,330.36919
3335.70484,330.36919
3337.91708,330.36919
3340.12931,330.36919
3342.34155,330.36919
3344.55378,330.36919
3346.76602,330.36919
3348.97825,330.36919
3351.19049,330.36919
3353.40273,330.36919
3355.61496,330.36919
3357.8272,330.36919
3360.03943,330.36919
3362.25167,330.36919
3364.4639,330.36919
3366.67614,330.36919
3368.88837,330.36919
3371.10061,330.36919
3373.31285,330.36919
3375.52508,330.36919
3377.73732,330.36919
3379.94955,330.36919
3382.16179,330.36919
3384.37402,330.36919
3386.58626,330.36919
3388.7985,330.36919
3391.01073,330.36919
3393.22297,330.36919
3395.4352,330.36919
3397.64744,330.36919
3399.85967,330.36919
3402.07191,330.36919
3404.28415,330.36919
3406.49638,331.1501
3408.70862,331.1501
3410.92085,331.1501
3413.13309,331.1501
3415.34532,331.1501
3417.55756,331.1501
3419.76979,331.1501
3421.98203,331.1501
3424.19427,331.1501
3426.4065,331.1501
3428.61874,331.1501
3430.83097,331.1501
3433.04321,331.1501
3435.25544,331.1501
3437.46768,331.1501
3439.67992,331.1501
3441.89215,331.1501
3444.10439,331.1501
3446.31662,331.1501
3448.52886,331.1501
3450.74109,331.1501
3452.95333,331.1501
3455.16557,331.1501
3457.3778,331.1501
3459.59004,331.1501
3461.80227,331.1501
3464.01451,331.1501
3466.22674,331.1501
3468.43898,331.1501
3470.65121,331.1501
3472.86345,331.1501
3475.07569,331.1501
3477.28792,331.1501
3479.50016,331.1501
3481.71239,331.1501
3483.92463,331.1501
3486.13686,331.1501
3488.3491,331.1501
3490.56134,331.1501
3492.77357,331.93102
3494.98581,332.71193
3497.19804,333.49284
3499.41028,334.27376
3501.62251,334.27376
3503.83475,334.27376
3506.04698,334.27376
3508.25922,334.27376
3510.47146,334.27376
3512.68369,334.27376
3514.89593,334.27376
3517.10816,333.49284
3519.3204,333.49284
3521.53263,333.49284
3523.74487,333.49284
3525.95711,333.49284
3528.16934,332.71193
3530.38158,331.93102
3532.59381,331.1501
3534.80605,330.36919
3537.01828,331.1501
3539.23052,330.36919
3541.44276,330.36919
3543.65499,330.36919
3545.86723,331.1501
3548.07946,331.93102
3550.2917,332.71193
3552.50393,333.49284
3554.71617,333.49284
3556.9284,333.49284
3559.14064,333.49284
3561.35288,332.71193
3563.56511,331.93102
3565.77735,331.1501
3567.98958,330.36919
3570.20182,330.36919
3572.41405,330.36919
3574.62629,330.36919
3576.83853,330.36919
3579.05076,330.36919
3581.263,330.36919
3583.47523,330.36919
3585.68747,330.36919
3587.8997,330.36919
3590.11194,330.36919
3592.32417,330.36919
3594.53641,330.36919
3596.74865,330.36919
3598.96088,330.36919
3601.17312,330.36919
3603.38535,330.36919
3605.59759,330.36919
3607.80982,330.36919
3610.02206,331.1501
3612.2343,331.93102
3614.44653,332.71193
3616.65877,333.49284
3618.871,333.49284
3621.08324,333.49284
3623.29547,333.49284
3625.50771,333.49284
3627.71995,333.49284
3629.93218,333.49284
3632.14442,332.71193
3634.35665,331.93102
3636.56889,331.1501
3638.78112,330.36919
3640.99336,330.36919
3643.20559,331.1501
3645.41783,330.36919
3647.63007,330.36919
3649.8423,330.36919
3652.05454,330.36919
3654.26677,330.36919
3656.47901,331.1501
3658.69124,331.93102
3660.90348,332.71193
3663.11572,332.71193
3665.32795,331.93102
3667.54019,331.1501
3669.75242,330.36919
3671.96466,330.36919
3674.17689,331.1501
3676.38913,330.36919
3678.60137,329.58828
3680.8136,329.58828
3683.02584,330.36919
3685.23807,331.1501
3687.45031,331.93102
3689.66254,332.71193
3691.87478,332.71193
3694.08701,332.71193
3696.29925,332.71193
3698.51149,331.93102
3700.72372,331.1501
3702.93596,330.36919
3705.14819,329.58828
3707.36043,329.58828
3709.57266,329.58828
3711.7849,329.58828
3713.99714,329.58828
3716.20937,329.58828
3718.42161,329.58828
3720.63384,329.58828
3722.84608,329.58828
3725.05831,329.58828
3727.27055,329.58828
3729.48278,329.58828
3731.69502,329.58828
3733.90726,329.58828
3736.11949,329.58828
3738.33173,329.58828
3740.54396,329.58828
3742.7562,329.58828
3744.96843,329.58828
3747.18067,329.58828
3749.39291,329.58828
3751.60514,329.58828
3753.81738,329.58828
3756.02961,329.58828
3758.24185,329.58828
3760.45408,329.58828
3762.66632,329.58828
3764.87856,329.58828
3767.09079,329.58828
3769.30303,329.58828
3771.51526,329.58828
3773.7275,329.58828
3775.93973,329.58828
3778.15197,329.58828
3780.3642,329.58828
3782.57644,329.58828
3784.78868,329.58828
3787.00091,329.58828
3789.21315,329.58828
3791.42538,329.58828
3793.63762,329.58828
3795.84985,329.58828
3798.06209,329.58828
3800.27433,329.58828
3802.48656,329.58828
3804.6988,329.58828
3806.91103,329.58828
3809.12327,329.58828
3811.3355,329.58828
3813.54774,329.58828
3815.75998,329.58828
3817.97221,329.58828
3820.18445,329.58828
3822.39668,329.58828
3824.60892,329.58828
3826.82115,329.58828
3829.03339,329.58828
3831.24562,329.58828
3833.45786,329.58828
3835.6701,329.58828
3837.88233,329.58828
3840.09457,329.58828
3842.3068,329.58828
3844.51904,329.58828
3846.73127,329.58828
3848.94351,329.58828
3851.15575,329.58828
3853.36798,329.58828
3855.58022,329.58828
3857.79245,329.58828
3860.00469,329.58828
3862.21692,329.58828
3864.42916,329.58828
3866.64139,329.58828
3868.85363,329.58828
3871.06587,329.58828
3873.2781,329.58828
3875.49034,329.58828
3877.70257,329.58828
3879.91481,329.58828
3882.12704,329.58828
3884.33928,329.58828
3886.55152,329.58828
3888.76375,329.58828
3890.97599,329.58828
3893.18822,329.58828
3895.40046,329.58828
3897.61269,329.58828
3899.82493,329.58828
3902.03717,329.58828
3904.2494,329.58828
3906.46164,329.58828
3908.67387,329.58828
3910.88611,329.58828
3913.09834,329.58828
3915.31058,329.58828
3917.52281,329.58828
3919.73505,329.58828
3921.94729,329.58828
3924.15952,329.58828
3926.37176,329.58828
3928.58399,329.58828
3930.79623,329.58828
3933.00846,329.58828
3935.2207,329.58828
3937.43294,329.58828
3939.64517,329.58828
3941.85741,329.58828
3944.06964,329.58828
3946.28188,329.58828
3948.49411,329.58828
3950.70635,329.58828
3952.91858,329.58828
3955.13082,329.58828
3957.34306,329.58828
3959.55529,329.58828
3961.76753,329.58828
3963.97976,329.58828
3966.192,329.58828
3968.40423,329.58828
3970.61647,329.58828
3972.82871,329.58828
3975.04094,329.58828
3977.25318,329.58828
3979.46541,329.58828
3981.67765,330.36919
3983.88988,331.1501
3986.10212,331.1501
3988.31436,331.1501
3990.52659,331.1501
3992.73883,331.1501
3994.95106,331.1501
3997.1633,331.1501
3999.37553,331.1501
4001.58777,331.1501
