Raman Shift,Intensity 
400,4.758066566
401,4.792151063
402,4.794755759
403,4.801386698
404,4.79660907
405,4.811883414
406,4.84014316
407,4.809830967
408,4.772734889
409,4.835116987
410,4.809672861
411,4.800115165
412,4.817540436
413,4.804750433
414,4.788922759
415,4.765259408
416,4.800234932
417,4.775500184
418,4.793094769
419,4.821764388
420,4.790666116
421,4.839810811
422,4.793055919
423,4.789333156
424,4.826427048
425,4.803465259
426,4.80576093
427,4.787930678
428,4.788859827
429,4.793427501
430,4.772029494
431,4.774003367
432,4.838879997
433,4.823147993
434,4.760233104
435,4.750832748
436,4.802672282
437,4.804287576
438,4.782349505
439,4.789021539
440,4.781619669
441,4.806201546
442,4.794593957
443,4.793243972
444,4.818938082
445,4.824939157
446,4.811193691
447,4.806516371
448,4.814175441
449,4.829847577
450,4.809989792
451,4.809478361
452,4.824317301
453,4.818483145
454,4.784191997
455,4.790284629
456,4.816241417
457,4.849782694
458,4.820248948
459,4.830390012
460,4.79442063
461,4.834783039
462,4.848730212
463,4.858414982
464,4.85521834
465,4.854999945
466,4.870565668
467,4.874844847
468,4.887684817
469,4.879265692
470,4.856861575
471,4.91271043
472,4.886546408
473,4.916732222
474,4.920744543
475,4.92189083
476,4.970195932
477,4.963503311
478,4.940613091
479,4.990173409
480,5.015366339
481,4.981459696
482,5.013008851
483,5.001070294
484,5.056041881
485,5.071468105
486,5.059828431
487,5.047148638
488,5.082930751
489,5.081401391
490,5.110634455
491,5.132437015
492,5.146274108
493,5.162775476
494,5.138739196
495,5.151289887
496,5.169962668
497,5.168162323
498,5.209325191
499,5.202102448
500,5.177325073
501,5.180195993
502,5.174742515
503,5.164118966
504,5.146993418
505,5.216493043
506,5.20942062
507,5.177515373
508,5.197661145
509,5.183180998
510,5.217589463
511,5.171292609
512,5.15602432
513,5.169517399
514,5.162569951
515,5.174990053
516,5.104847834
517,5.106779299
518,5.125613904
519,5.107672861
520,5.096099081
521,5.071096855
522,5.079050531
523,5.039786499
524,5.070200463
525,5.038134863
526,4.996939562
527,4.985665217
528,4.960594833
529,4.985917655
530,4.964747658
531,4.966592285
532,4.95829404
533,4.961459487
534,4.927201753
535,4.947836696
536,4.918187187
537,4.921770337
538,4.869285508
539,4.882937899
540,4.849831695
541,4.825276389
542,4.86591883
543,4.875345671
544,4.853650285
545,4.867727638
546,4.846309397
547,4.86488938
548,4.841089996
549,4.830832372
550,4.83638524
551,4.823567723
552,4.833083307
553,4.799803401
554,4.823805732
555,4.848387196
556,4.793125392
557,4.806673483
558,4.824910449
559,4.816008009
560,4.770291301
561,4.787300413
562,4.828102351
563,4.773121835
564,4.835989517
565,4.823721803
566,4.782291374
567,4.803386267
568,4.802248898
569,4.796771139
570,4.81428814
571,4.7895496
572,4.779370748
573,4.766845005
574,4.80677639
575,4.798245536
576,4.769594299
577,4.797413391
578,4.794718554
579,4.738957478
580,4.824915926
581,4.836731555
582,4.851128769
583,4.790095198
584,4.79655395
585,4.826844488
586,4.805278024
587,4.813149762
588,4.774261753
589,4.792530768
590,4.794313626
591,4.80510575
592,4.792629551
593,4.773217681
594,4.808708107
595,4.804669
596,4.814087481
597,4.814510845
598,4.802189722
599,4.779032408
600,4.802226662
601,4.797086798
602,4.844144481
603,4.768529552
604,4.792039326
605,4.796001586
606,4.766427654
607,4.805352374
608,4.830427915
609,4.804662906
610,4.807822885
611,4.763632806
612,4.792053296
613,4.84282978
614,4.835031194
615,4.792931329
616,4.778940916
617,4.76827062
618,4.815752731
619,4.768612823
620,4.792441801
621,4.774363792
622,4.8274973
623,4.799400616
624,4.822457819
625,4.756545758
626,4.828696896
627,4.824687089
628,4.797626384
629,4.832184466
630,4.836707164
631,4.794185791
632,4.828191146
633,4.789530927
634,4.787220781
635,4.758550495
636,4.772579195
637,4.817812178
638,4.809138176
639,4.797066553
640,4.810633076
641,4.771286326
642,4.780410461
643,4.835925111
644,4.811143735
645,4.823070294
646,4.842976259
647,4.804791271
648,4.823693578
649,4.812144995
650,4.77472395
651,4.802503869
652,4.804093469
653,4.784932804
654,4.806044924
655,4.814271484
656,4.769077494
657,4.801948036
658,4.807200867
659,4.814744232
660,4.821230898
661,4.753611917
662,4.797008016
663,4.783180652
664,4.845782767
665,4.788513508
666,4.756288249
667,4.770260051
668,4.764061663
669,4.817836538
670,4.871836691
671,4.791992152
672,4.818201111
673,4.798530755
674,4.817476678
675,4.792421405
676,4.790288915
677,4.801600044
678,4.775970158
679,4.824580579
680,4.825399264
681,4.797359786
682,4.783980463
683,4.790946211
684,4.790263245
685,4.768784138
686,4.78981627
687,4.7782494
688,4.804121517
689,4.799742679
690,4.796990719
691,4.791008636
692,4.805850063
693,4.821997891
694,4.805958068
695,4.814476124
696,4.808201234
697,4.801683727
698,4.796803234
699,4.804716326
700,4.785416156
701,4.782665051
702,4.800592676
703,4.814377298
704,4.811514831
705,4.80772393
706,4.81448955
707,4.814334118
708,4.828375822
709,4.81089101
710,4.839906705
711,4.804499857
712,4.762118817
713,4.775425269
714,4.794305574
715,4.821628322
716,4.816190899
717,4.801174147
718,4.783009156
719,4.821622125
720,4.817101554
721,4.812861347
722,4.818661557
723,4.806042359
724,4.837331236
725,4.812122914
726,4.771083779
727,4.796098387
728,4.80848283
729,4.81200383
730,4.804690676
731,4.810018632
732,4.809200251
733,4.78935905
734,4.81984383
735,4.789961753
736,4.787285173
737,4.78069478
738,4.817920552
739,4.818237753
740,4.813402074
741,4.775895185
742,4.803463788
743,4.834954368
744,4.83060913
745,4.779122209
746,4.795390572
747,4.82001958
748,4.764768865
749,4.773657265
750,4.837805658
751,4.787076152
752,4.82754686
753,4.794380803
754,4.775208701
755,4.854394027
756,4.788008591
757,4.786753454
758,4.79103256
759,4.792095368
760,4.807639442
761,4.790781623
762,4.804736044
763,4.807662093
764,4.808281145
765,4.797234563
766,4.807165064
767,4.785952845
768,4.791565421
769,4.80001571
770,4.780936277
771,4.75470962
772,4.801282476
773,4.776463274
774,4.799853059
775,4.771321008
776,4.808406255
777,4.78356891
778,4.822758579
779,4.783515363
780,4.794690288
781,4.796276023
782,4.796195203
783,4.78265331
784,4.804090988
785,4.789996909
786,4.797334302
787,4.817708934
788,4.811760869
789,4.801992401
790,4.788489954
791,4.795211337
792,4.792894606
793,4.831738802
794,4.78292962
795,4.818126702
796,4.812105736
797,4.839324043
798,4.748481156
799,4.775589741
800,4.785894684
801,4.812704414
802,4.789972198
803,4.808270675
804,4.82841598
805,4.801242904
806,4.811809015
807,4.795866518
808,4.774165695
809,4.781926582
810,4.770637458
811,4.777558058
812,4.810013962
813,4.805361517
814,4.780510738
815,4.824219533
816,4.780846263
817,4.810135022
818,4.822456917
819,4.859380438
820,4.794111262
821,4.817893372
822,4.802250147
823,4.78490908
824,4.817634917
825,4.819478534
826,4.785031201
827,4.800516756
828,4.785913835
829,4.802872555
830,4.803628374
831,4.781806217
832,4.7898148
833,4.827582464
834,4.783955014
835,4.803009814
836,4.815703493
837,4.765395848
838,4.826343429
839,4.807371828
840,4.796673286
841,4.774716309
842,4.771162565
843,4.824899955
844,4.82481091
845,4.800922067
846,4.781811982
847,4.799386402
848,4.780828283
849,4.823839907
850,4.807473589
851,4.78002563
852,4.821539704
853,4.81204115
854,4.798950434
855,4.773535305
856,4.788613047
857,4.783001243
858,4.828922283
859,4.762188729
860,4.85180017
861,4.824888784
862,4.799215187
863,4.795746229
864,4.782459825
865,4.800349426
866,4.792068811
867,4.830206557
868,4.816984673
869,4.797720383
870,4.793874055
871,4.790638553
872,4.799922233
873,4.797308961
874,4.791448076
875,4.81600862
876,4.803177535
877,4.784455494
878,4.802153048
879,4.805133538
880,4.807168147
881,4.806638137
882,4.813229112
883,4.763639209
884,4.815791746
885,4.803589366
886,4.816027251
887,4.794233331
888,4.765733879
889,4.800083469
890,4.79812802
891,4.781732681
892,4.774234018
893,4.845631768
894,4.839345589
895,4.807133317
896,4.775442003
897,4.777381743
898,4.844085092
899,4.810482944
900,4.808821771
901,4.825688323
902,4.815347915
903,4.820417395
904,4.805217795
905,4.800613458
906,4.802426383
907,4.801291458
908,4.774342683
909,4.777983663
910,4.806006943
911,4.788369077
912,4.818119625
913,4.820182014
914,4.786673304
915,4.790099449
916,4.790840139
917,4.809210458
918,4.773362712
919,4.755853866
920,4.807449314
921,4.774171539
922,4.793298542
923,4.796190396
924,4.819579453
925,4.800674831
926,4.813341842
927,4.802367281
928,4.806710377
929,4.79303792
930,4.809976749
931,4.798264751
932,4.78334815
933,4.798974105
934,4.771660855
935,4.79378724
936,4.803492082
937,4.788014838
938,4.759380698
939,4.800069244
940,4.782500281
941,4.79627384
942,4.814785593
943,4.77742869
944,4.769474148
945,4.807452203
946,4.816467578
947,4.837070411
948,4.79890328
949,4.796620914
950,4.805094759
951,4.823635161
952,4.775790804
953,4.820841777
954,4.803925871
955,4.779894757
956,4.813913257
957,4.810519525
958,4.790934491
959,4.806005102
960,4.761437096
961,4.777600102
962,4.798525181
963,4.757882006
964,4.766377003
965,4.786062907
966,4.785634164
967,4.780516689
968,4.84107406
969,4.779056074
970,4.80920241
971,4.809137104
972,4.80257765
973,4.80162931
974,4.811378456
975,4.836211147
976,4.832006434
977,4.811917348
978,4.78976179
979,4.796766242
980,4.828363012
981,4.789139918
982,4.803572989
983,4.775296638
984,4.818497126
985,4.82268355
986,4.82219748
987,4.795132574
988,4.810301972
989,4.807981413
990,4.782516126
991,4.783213102
992,4.809205816
993,4.75574896
994,4.78293477
995,4.823691004
996,4.809501538
997,4.762438791
998,4.807952874
999,4.798851808
1000,4.842452319
1001,4.801421821
1002,4.81010136
1003,4.806721838
1004,4.785772284
1005,4.787244311
1006,4.801948898
1007,4.799191327
1008,4.807263881
1009,4.8107228
1010,4.828034277
1011,4.812053512
1012,4.798793585
1013,4.809113624
1014,4.782357926
1015,4.792994182
1016,4.811848216
1017,4.791192885
1018,4.800952085
1019,4.778671679
1020,4.795674194
1021,4.815193861
1022,4.80555268
1023,4.791509759
1024,4.806670094
1025,4.833844701
1026,4.797321385
1027,4.805768908
1028,4.776928112
1029,4.784118834
1030,4.784722883
1031,4.777934457
1032,4.812215956
1033,4.84223918
1034,4.796888666
1035,4.809481599
1036,4.785634598
1037,4.844365197
1038,4.829635434
1039,4.810666193
1040,4.813287215
1041,4.811198448
1042,4.78985842
1043,4.81258483
1044,4.775759397
1045,4.814001222
1046,4.844233184
1047,4.853853252
1048,4.815613845
1049,4.835369742
1050,4.851114826
1051,4.806033768
1052,4.831704161
1053,4.856784642
1054,4.890925985
1055,4.895276822
1056,4.865023088
1057,4.901715928
1058,4.893350984
1059,4.86789018
1060,4.88379797
1061,4.906681286
1062,4.906565601
1063,4.907470797
1064,4.917721134
1065,4.917771389
1066,4.954427678
1067,4.952059089
1068,4.992117317
1069,5.009656548
1070,4.98713211
1071,5.027254279
1072,5.048649057
1073,5.042018535
1074,5.050386529
1075,5.097038114
1076,5.127374951
1077,5.137585167
1078,5.168639906
1079,5.174155806
1080,5.140738426
1081,5.21976503
1082,5.258808763
1083,5.239409027
1084,5.304496482
1085,5.307011987
1086,5.341891179
1087,5.351720962
1088,5.388043419
1089,5.38634023
1090,5.435212591
1091,5.435328344
1092,5.49786332
1093,5.493305765
1094,5.510317334
1095,5.523561037
1096,5.594339965
1097,5.595356664
1098,5.614362371
1099,5.635745163
1100,5.680554391
1101,5.642536142
1102,5.656374698
1103,5.741843925
1104,5.724115478
1105,5.740515205
1106,5.757923787
1107,5.779056255
1108,5.75689726
1109,5.771273518
1110,5.789892449
1111,5.80300271
1112,5.801153293
1113,5.793033095
1114,5.786162904
1115,5.782791258
1116,5.803033986
1117,5.821063103
1118,5.789216531
1119,5.809244107
1120,5.772528284
1121,5.759598797
1122,5.756823988
1123,5.743727626
1124,5.723005585
1125,5.71761785
1126,5.708619751
1127,5.674253582
1128,5.677985346
1129,5.630950672
1130,5.640966428
1131,5.606460446
1132,5.575775363
1133,5.534002222
1134,5.541270436
1135,5.492222982
1136,5.489374333
1137,5.415965198
1138,5.414426324
1139,5.37312919
1140,5.37463282
1141,5.371575824
1142,5.327689133
1143,5.29075315
1144,5.25201756
1145,5.293438676
1146,5.266483436
1147,5.205436437
1148,5.198701115
1149,5.167434869
1150,5.149903468
1151,5.135488173
1152,5.086383596
1153,5.073820975
1154,5.109249748
1155,5.04496831
1156,5.055056299
1157,5.010903208
1158,5.007422481
1159,4.999324249
1160,4.974531545
1161,4.987804362
1162,4.94193237
1163,4.933344763
1164,4.912074793
1165,4.924452245
1166,4.88523169
1167,4.872867284
1168,4.894373085
1169,4.870494619
1170,4.902516396
1171,4.850045896
1172,4.834863944
1173,4.86106435
1174,4.858335685
1175,4.868363068
1176,4.841502743
1177,4.834888221
1178,4.834485407
1179,4.852247472
1180,4.82760065
1181,4.851181214
1182,4.867239764
1183,4.845886747
1184,4.80227633
1185,4.795797065
1186,4.816974532
1187,4.772960138
1188,4.810079981
1189,4.840778909
1190,4.835772526
1191,4.815587932
1192,4.806012632
1193,4.796563897
1194,4.827477471
1195,4.852507643
1196,4.842523071
1197,4.85520144
1198,4.777586689
1199,4.790380208
1200,4.829544779
1201,4.780668122
1202,4.806911402
1203,4.805081865
1204,4.772286986
1205,4.797337466
1206,4.780137458
1207,4.848174978
1208,4.839287918
1209,4.768988768
1210,4.805277995
1211,4.798947259
1212,4.794109652
1213,4.828563405
1214,4.810741871
1215,4.780663441
1216,4.800465981
1217,4.835422628
1218,4.803739327
1219,4.787428825
1220,4.806341479
1221,4.796524025
1222,4.76674421
1223,4.792043415
1224,4.803524536
1225,4.778555874
1226,4.811096455
1227,4.802402687
1228,4.829093752
1229,4.796322274
1230,4.776789981
1231,4.8191957
1232,4.797988209
1233,4.797098183
1234,4.820800445
1235,4.81685508
1236,4.82702877
1237,4.808865015
1238,4.825834608
1239,4.802777976
1240,4.815944392
1241,4.807450778
1242,4.811578596
1243,4.781275796
1244,4.810506336
1245,4.775781645
1246,4.801459933
1247,4.7637153
1248,4.80695888
1249,4.801482391
1250,4.797628237
1251,4.784648736
1252,4.806308663
1253,4.831199263
1254,4.817851246
1255,4.826311212
1256,4.832316481
1257,4.748502256
1258,4.817194263
1259,4.772874567
1260,4.813204634
1261,4.817087253
1262,4.810274266
1263,4.826390935
1264,4.814249848
1265,4.805342906
1266,4.819245183
1267,4.82615403
1268,4.797140537
1269,4.798198863
1270,4.774605388
1271,4.783406368
1272,4.792652561
1273,4.787122437
1274,4.825404846
1275,4.810922859
1276,4.778879999
1277,4.794794758
1278,4.80300277
1279,4.797641622
1280,4.828811696
1281,4.781062028
1282,4.811356598
1283,4.77241199
1284,4.835451205
1285,4.832528884
1286,4.780788226
1287,4.807397097
1288,4.782832138
1289,4.761618595
1290,4.801312437
1291,4.799918603
1292,4.763901822
1293,4.795203461
1294,4.799303934
1295,4.783288701
1296,4.828788749
1297,4.826136677
1298,4.804455479
1299,4.79346427
1300,4.798646735
1301,4.785911904
1302,4.795821183
1303,4.820591744
1304,4.784809523
1305,4.797365839
1306,4.817947002
1307,4.798292542
1308,4.785316594
1309,4.79999463
1310,4.795441528
1311,4.799336726
1312,4.795348196
1313,4.781756238
1314,4.784035908
1315,4.792575955
1316,4.794013046
1317,4.78940995
1318,4.793062584
1319,4.806551177
1320,4.779407388
1321,4.796840251
1322,4.810065426
1323,4.796880001
1324,4.790748447
1325,4.807187604
1326,4.795297537
1327,4.821995965
1328,4.787732618
1329,4.794973767
1330,4.762104905
1331,4.770345579
1332,4.782328851
1333,4.813805202
1334,4.742919863
1335,4.784508147
1336,4.842823867
1337,4.786243347
1338,4.777164213
1339,4.800048751
1340,4.812164488
1341,4.798227557
1342,4.806633075
1343,4.81199217
1344,4.792315583
1345,4.786700169
1346,4.787090785
1347,4.812818849
1348,4.81901454
1349,4.7986501
1350,4.786701501
1351,4.795157375
1352,4.762151097
1353,4.819215292
1354,4.81855371
1355,4.786073331
1356,4.809551769
1357,4.824798558
1358,4.765702994
1359,4.832048451
1360,4.790783782
1361,4.827929135
1362,4.82331905
1363,4.769881959
1364,4.779094505
1365,4.807526894
1366,4.822635362
1367,4.796774068
1368,4.783376203
1369,4.775100605
1370,4.791905695
1371,4.775733367
1372,4.808826421
1373,4.786547684
1374,4.781928584
1375,4.818352314
1376,4.818894157
1377,4.8065884
1378,4.791810533
1379,4.791808425
1380,4.814541437
1381,4.81741011
1382,4.776545638
1383,4.803290029
1384,4.779628906
1385,4.826085267
1386,4.804520744
1387,4.815893197
1388,4.800177302
1389,4.785523757
1390,4.777134066
1391,4.791317174
1392,4.816631299
1393,4.774193345
1394,4.766450048
1395,4.790897245
1396,4.798130151
1397,4.779124872
1398,4.829972163
1399,4.789247974
1400,4.795952267
1401,4.787312307
1402,4.779437811
1403,4.80580666
1404,4.81795721
1405,4.787345462
1406,4.825171944
1407,4.805783696
1408,4.843487315
1409,4.791166211
1410,4.810018655
1411,4.791639002
1412,4.793821439
1413,4.775093576
1414,4.772190991
1415,4.798968648
1416,4.835469328
1417,4.809070746
1418,4.770241628
1419,4.804911657
1420,4.764866231
1421,4.772466561
1422,4.808427795
1423,4.808094608
1424,4.788139355
1425,4.792118398
1426,4.799549451
1427,4.797485305
1428,4.80674901
1429,4.801683251
1430,4.775238418
1431,4.832771321
1432,4.774844184
1433,4.790275434
1434,4.831389012
1435,4.797873716
1436,4.844089975
1437,4.779458223
1438,4.775629828
1439,4.796525214
1440,4.787158875
1441,4.759159306
1442,4.792267026
1443,4.823266992
1444,4.783130013
1445,4.821132164
1446,4.796724268
1447,4.800366321
1448,4.807262608
1449,4.813052545
1450,4.784416461
1451,4.81068887
1452,4.832147078
1453,4.783633573
1454,4.784839826
1455,4.788872617
1456,4.830952897
1457,4.790353392
1458,4.807427939
1459,4.751097515
1460,4.795070726
1461,4.798519147
1462,4.815619954
1463,4.792953942
1464,4.786435982
1465,4.800906208
1466,4.797367683
1467,4.813387817
1468,4.794817003
1469,4.772460772
1470,4.773286361
1471,4.795009704
1472,4.810180153
1473,4.804535122
1474,4.80417011
1475,4.806390889
1476,4.78715461
1477,4.784867954
1478,4.848024698
1479,4.829868849
1480,4.797154488
1481,4.797939204
1482,4.772515901
1483,4.803911334
1484,4.832715467
1485,4.791208357
1486,4.819883354
1487,4.817365642
1488,4.824389198
1489,4.807603442
1490,4.792900423
1491,4.799872638
1492,4.827486173
1493,4.793150846
1494,4.787387097
1495,4.789137806
1496,4.785317672
1497,4.768516798
1498,4.80761229
1499,4.821681835
1500,4.76369362
1501,4.796823112
1502,4.808914679
1503,4.815591936
1504,4.801188491
1505,4.817309972
1506,4.843110199
1507,4.782192312
1508,4.811064008
1509,4.804049617
1510,4.802949844
1511,4.793963422
1512,4.779352776
1513,4.787834294
1514,4.828852337
1515,4.791475384
1516,4.786260552
1517,4.753933533
1518,4.794469802
1519,4.775606037
1520,4.797197269
1521,4.778377234
1522,4.795603254
1523,4.792646076
1524,4.808542658
1525,4.818322037
1526,4.786098669
1527,4.817695007
1528,4.769064022
1529,4.796273358
1530,4.822447654
1531,4.834702299
1532,4.81357844
1533,4.778638404
1534,4.789883204
1535,4.790346652
1536,4.794671432
1537,4.83763555
1538,4.816503163
1539,4.745594751
1540,4.82844914
1541,4.808088171
1542,4.816986401
1543,4.786907657
1544,4.774179245
1545,4.829813343
1546,4.771583054
1547,4.788374627
1548,4.798455145
1549,4.807357649
1550,4.771641608
1551,4.798092892
1552,4.830795761
1553,4.799344465
1554,4.76461097
1555,4.775103853
1556,4.825710865
1557,4.82659338
1558,4.824886981
1559,4.780465248
1560,4.776810123
1561,4.776487448
1562,4.835576706
1563,4.820822908
1564,4.806187691
1565,4.816842228
1566,4.809913971
1567,4.773864854
1568,4.793257185
1569,4.802081744
1570,4.838470789
1571,4.810949917
1572,4.804679782
1573,4.810287012
1574,4.822500094
1575,4.839067927
1576,4.819338238
1577,4.817577849
1578,4.793881576
1579,4.776134853
1580,4.824886609
1581,4.800894199
1582,4.834690608
1583,4.83146974
1584,4.806926039
1585,4.828117915
1586,4.756312685
1587,4.797191394
1588,4.823547791
1589,4.811928246
1590,4.792345752
1591,4.810888234
1592,4.805027255
1593,4.791319683
1594,4.773558536
1595,4.789137319
1596,4.8184604
1597,4.808887794
1598,4.799642985
1599,4.796251235
1600,4.793496704
1601,4.764899117
1602,4.790194471
1603,4.791954308
1604,4.79849134
1605,4.795298881
1606,4.806010752
1607,4.846218572
1608,4.845015071
1609,4.804826029
1610,4.790477774
1611,4.807632924
1612,4.789113544
1613,4.822006593
1614,4.775412558
1615,4.804265359
1616,4.798069986
1617,4.804157997
1618,4.775954285
1619,4.789938757
1620,4.79460509
1621,4.807784662
1622,4.80900271
1623,4.800367207
1624,4.808360136
1625,4.7816692
1626,4.79679151
1627,4.792908201
1628,4.824099519
1629,4.824576122
1630,4.79182752
1631,4.783711299
1632,4.801674673
1633,4.782081742
1634,4.83029234
1635,4.791389488
1636,4.796726947
1637,4.787008398
1638,4.80468949
1639,4.7991105
1640,4.81312474
1641,4.78929058
1642,4.825812491
1643,4.767700987
1644,4.806005626
1645,4.793084782
1646,4.81941792
1647,4.810172547
1648,4.796637559
1649,4.801830082
1650,4.797059784
1651,4.820356949
1652,4.799596392
1653,4.769137405
1654,4.787009196
1655,4.825284182
1656,4.796284045
1657,4.805435369
1658,4.787612917
1659,4.789940456
1660,4.796446552
1661,4.810075768
1662,4.782550635
1663,4.771229028
1664,4.785933972
1665,4.797392685
1666,4.777056825
1667,4.834709433
1668,4.78840139
1669,4.795338052
1670,4.782847745
1671,4.808632993
1672,4.77464767
1673,4.794565271
1674,4.830227216
1675,4.834004142
1676,4.80354379
1677,4.781292699
1678,4.804990945
1679,4.81982274
1680,4.795452201
1681,4.782792788
1682,4.753159193
1683,4.810695238
1684,4.802108647
1685,4.836723526
1686,4.815043041
1687,4.798081153
1688,4.835629803
1689,4.829644244
1690,4.794978716
1691,4.797905924
1692,4.756567919
1693,4.817238263
1694,4.794919391
1695,4.785759686
1696,4.77438402
1697,4.78239136
1698,4.814916982
1699,4.815985598
1700,4.798856022
1701,4.783944363
1702,4.819159582
1703,4.806827309
1704,4.798008053
1705,4.790742701
1706,4.802981173
1707,4.831517097
1708,4.786488581
1709,4.798387841
1710,4.774432955
1711,4.777197137
1712,4.802144131
1713,4.798917702
1714,4.820268769
1715,4.779674705
1716,4.780199092
1717,4.776034905
1718,4.875806975
1719,4.794072456
1720,4.773220085
1721,4.784091121
1722,4.812513364
1723,4.778431447
1724,4.79161621
1725,4.789834114
1726,4.810076215
1727,4.789197964
1728,4.81435252
1729,4.794410684
1730,4.790848012
1731,4.795100233
1732,4.797950768
1733,4.804559703
1734,4.798164028
1735,4.801655264
1736,4.802469549
1737,4.782898545
1738,4.816534802
1739,4.859568866
1740,4.765465581
1741,4.780315727
1742,4.819522157
1743,4.799410204
1744,4.766913726
1745,4.802930462
1746,4.823434248
1747,4.806047921
1748,4.79176592
1749,4.796600481
1750,4.775262434
1751,4.82720965
1752,4.787525775
1753,4.800676836
1754,4.830295168
1755,4.823266854
1756,4.77796247
1757,4.800183402
1758,4.797125372
1759,4.777776677
1760,4.767685561
1761,4.822356353
1762,4.760030542
1763,4.791862128
1764,4.795278962
1765,4.760987711
1766,4.788337061
1767,4.80107321
1768,4.806448492
1769,4.816047731
1770,4.768467879
1771,4.808475949
1772,4.806464537
1773,4.781014345
1774,4.761209012
1775,4.807666949
1776,4.807330143
1777,4.788921809
1778,4.819247489
1779,4.790313203
1780,4.815576992
1781,4.824698416
1782,4.783133259
1783,4.804147305
1784,4.807989827
1785,4.796657951
1786,4.800002527
1787,4.818209553
1788,4.786583323
1789,4.788102991
1790,4.81579039
1791,4.790736016
1792,4.832549411
1793,4.807281238
1794,4.833789447
1795,4.78424673
1796,4.755635617
1797,4.796832566
1798,4.79610923
1799,4.787558326
1800,4.822419797
1801,4.802089918
1802,4.828221784
1803,4.784947477
1804,4.796891923
1805,4.776270541
1806,4.793705248
1807,4.801172487
1808,4.812359896
1809,4.77428502
1810,4.768636122
1811,4.810166126
1812,4.776692814
1813,4.797606561
1814,4.846494671
1815,4.849034443
1816,4.841469975
1817,4.81610252
1818,4.809521188
1819,4.772876473
1820,4.766401515
1821,4.832996939
1822,4.769689102
1823,4.830355741
1824,4.822496211
1825,4.819301776
1826,4.813508131
1827,4.815550912
1828,4.82040733
1829,4.789700566
1830,4.791857294
1831,4.794194979
1832,4.787379106
1833,4.77540515
1834,4.814618908
1835,4.823080135
1836,4.810255877
1837,4.811912093
1838,4.802608765
1839,4.782611729
1840,4.787195071
1841,4.772258338
1842,4.81442887
1843,4.778510799
1844,4.789531212
1845,4.789995381
1846,4.77759201
1847,4.79394672
1848,4.798614061
1849,4.801075313
1850,4.780689692
1851,4.799482695
1852,4.769341045
1853,4.793165562
1854,4.785693913
1855,4.750098234
1856,4.8068016
1857,4.81070845
1858,4.81972255
1859,4.781241687
1860,4.801759209
1861,4.812052037
1862,4.827609326
1863,4.764952755
1864,4.780153375
1865,4.794867679
1866,4.792903704
1867,4.78980685
1868,4.751701103
1869,4.796767962
1870,4.804761015
1871,4.788605259
1872,4.794425641
1873,4.798559725
1874,4.810573272
1875,4.811112169
1876,4.77640988
1877,4.80209418
1878,4.820554725
1879,4.769647368
1880,4.802458756
1881,4.80541886
1882,4.787672791
1883,4.821970979
1884,4.807828434
1885,4.828166199
1886,4.779483402
1887,4.797726279
1888,4.787338517
1889,4.754020908
1890,4.802462599
1891,4.821108974
1892,4.801977144
1893,4.775375223
1894,4.775180739
1895,4.833014908
1896,4.804107169
1897,4.805431249
1898,4.772175797
1899,4.777831751
1900,4.799098374
1901,4.8315534
1902,4.75305806
1903,4.811689156
1904,4.798629009
1905,4.799258196
1906,4.828994587
1907,4.805547977
1908,4.794794658
1909,4.79680791
1910,4.796197
1911,4.834878504
1912,4.794661563
1913,4.778084732
1914,4.800582438
1915,4.812670743
1916,4.824271852
1917,4.81294246
1918,4.820062162
1919,4.787062559
1920,4.776884777
1921,4.793680062
1922,4.823423918
1923,4.798174512
1924,4.829449463
1925,4.800721309
1926,4.797606768
1927,4.788014919
1928,4.837789139
1929,4.82478465
1930,4.810706699
1931,4.75948093
1932,4.811635791
1933,4.800448788
1934,4.834875672
1935,4.796603299
1936,4.831708503
1937,4.772535054
1938,4.770949773
1939,4.798780798
1940,4.80448581
1941,4.785995508
1942,4.803036916
1943,4.793694298
1944,4.814573155
1945,4.832837791
1946,4.784971375
1947,4.773363098
1948,4.810679733
1949,4.814076847
1950,4.788828737
1951,4.800578624
1952,4.805421427
1953,4.781733617
1954,4.781598188
1955,4.797295572
1956,4.833002911
1957,4.817762385
1958,4.803535008
1959,4.776033606
1960,4.794225382
1961,4.824000628
1962,4.830195884
1963,4.823971499
1964,4.800771172
1965,4.790270203
1966,4.83283071
1967,4.820966021
1968,4.789909658
1969,4.806222418
1970,4.784973638
1971,4.830992845
1972,4.820455145
1973,4.775783081
1974,4.795987967
1975,4.778081472
1976,4.802807678
1977,4.77905735
1978,4.795608916
1979,4.77779013
1980,4.81331873
1981,4.8244353
1982,4.786080349
1983,4.804421915
1984,4.813322629
1985,4.797540159
1986,4.817335862
1987,4.838251999
1988,4.794845866
1989,4.788398705
1990,4.803616877
1991,4.781692872
1992,4.798393223
1993,4.794125804
1994,4.815379564
1995,4.795173479
1996,4.75819061
1997,4.794236953
1998,4.761373925
1999,4.818759219
2000,4.793634992
2001,4.78408994
2002,4.829859186
2003,4.817345867
2004,4.784289261
2005,4.801808353
2006,4.782143299
2007,4.832412208
2008,4.785098398
2009,4.828518619
2010,4.788723335
2011,4.785278053
2012,4.815607532
2013,4.795649667
2014,4.786141524
2015,4.803609158
2016,4.807294385
2017,4.813420944
2018,4.764784841
2019,4.844215213
2020,4.791806093
2021,4.821746242
2022,4.778797753
2023,4.803116094
2024,4.806365867
2025,4.825923613
2026,4.779219597
2027,4.799033887
2028,4.792781214
2029,4.817442139
2030,4.812509739
2031,4.815063744
2032,4.802613916
2033,4.814614471
2034,4.830046563
2035,4.761429093
2036,4.82498271
2037,4.810319915
2038,4.769426917
2039,4.771586298
2040,4.825044451
2041,4.818421125
2042,4.830799513
2043,4.806124249
2044,4.759723988
2045,4.80267448
2046,4.789199433
2047,4.804840415
2048,4.77808481
2049,4.802503882
2050,4.781275085
2051,4.818466203
2052,4.804775762
2053,4.772802023
2054,4.781951136
2055,4.76253644
2056,4.823072229
2057,4.790103753
2058,4.799524853
2059,4.834107735
2060,4.846953773
2061,4.799206503
2062,4.808226249
2063,4.808187318
2064,4.756871779
2065,4.794301166
2066,4.764061026
2067,4.799037999
2068,4.795477081
2069,4.766538442
2070,4.748066408
2071,4.811617669
2072,4.79731326
2073,4.83848023
2074,4.788140078
2075,4.813244866
2076,4.799969538
2077,4.808130041
2078,4.761575904
2079,4.767672794
2080,4.781152448
2081,4.802794489
2082,4.779751265
2083,4.785009181
2084,4.812243129
2085,4.818427105
2086,4.792575275
2087,4.815132442
2088,4.794346849
2089,4.801492772
2090,4.789848733
2091,4.796183842
2092,4.78355266
2093,4.816679234
2094,4.820929471
2095,4.788045638
2096,4.814102473
2097,4.807554862
2098,4.783928326
2099,4.810092057
2100,4.832264552
2101,4.812720368
2102,4.815817245
2103,4.784418905
2104,4.78412403
2105,4.805043775
2106,4.799301244
2107,4.810219923
2108,4.821974735
2109,4.829670912
2110,4.822828637
2111,4.797162221
2112,4.822734078
2113,4.801821242
2114,4.787916954
2115,4.789109305
2116,4.747298066
2117,4.831300986
2118,4.815506156
2119,4.804978506
2120,4.808898189
2121,4.774451556
2122,4.815027909
2123,4.826069419
2124,4.772103875
2125,4.827389437
2126,4.828266254
2127,4.800619568
2128,4.781751698
2129,4.819014834
2130,4.784872713
2131,4.812165661
2132,4.777128428
2133,4.781483709
2134,4.804799745
2135,4.814960146
2136,4.820777588
2137,4.811593848
2138,4.778641589
2139,4.785174748
2140,4.799272634
2141,4.799291068
2142,4.78550859
2143,4.824429233
2144,4.818562857
2145,4.817931019
2146,4.765714804
2147,4.813670471
2148,4.815986272
2149,4.810075943
2150,4.782047732
2151,4.795472128
2152,4.802203385
2153,4.790797823
2154,4.832420934
2155,4.790702547
2156,4.757887212
2157,4.791136947
2158,4.826993154
2159,4.798767245
2160,4.812985021
2161,4.758936727
2162,4.826640652
2163,4.818277276
2164,4.787103626
2165,4.799397016
2166,4.832768568
2167,4.808518229
2168,4.780109843
2169,4.833253055
2170,4.798060188
2171,4.797254776
2172,4.782178064
2173,4.782411877
2174,4.834762786
2175,4.811472895
2176,4.79123825
2177,4.793609666
2178,4.788847673
2179,4.800518405
2180,4.794802963
2181,4.780557068
2182,4.799054308
2183,4.853086616
2184,4.833530159
2185,4.79371617
2186,4.793851208
2187,4.806630122
2188,4.810176435
2189,4.79208206
2190,4.813340292
2191,4.811106165
2192,4.803497136
2193,4.782521627
2194,4.812103908
2195,4.82006325
2196,4.783955512
2197,4.769184218
2198,4.813898682
2199,4.787617589
2200,4.781019312
2201,4.782759116
2202,4.803402484
2203,4.827127624
2204,4.770063454
2205,4.831179186
2206,4.829306483
2207,4.803761834
2208,4.810751172
2209,4.798368283
2210,4.820598133
2211,4.800878847
2212,4.781724278
2213,4.78303729
2214,4.781033189
2215,4.799740296
2216,4.838849275
2217,4.828394245
2218,4.805732401
2219,4.785204425
2220,4.778349609
2221,4.788883181
2222,4.794915296
2223,4.800131594
2224,4.824275253
2225,4.797311225
2226,4.761000739
2227,4.798705462
2228,4.792018089
2229,4.788003455
2230,4.829080125
2231,4.80004779
2232,4.764107255
2233,4.842301452
2234,4.796340207
2235,4.763905618
2236,4.780031026
2237,4.800782025
2238,4.807320778
2239,4.794878739
2240,4.819436466
2241,4.822445657
2242,4.819418309
2243,4.781669923
2244,4.782534114
2245,4.787755985
2246,4.78502207
2247,4.791549737
2248,4.807530266
2249,4.773676177
2250,4.795681385
2251,4.810519961
2252,4.79249919
2253,4.790089637
2254,4.827171328
2255,4.815611969
2256,4.81426606
2257,4.778396766
2258,4.778234154
2259,4.798982994
2260,4.783334032
2261,4.829244815
2262,4.819281837
2263,4.769937969
2264,4.778717566
2265,4.796128568
2266,4.799990132
2267,4.79422027
2268,4.776863199
2269,4.825281717
2270,4.785154685
2271,4.761850248
2272,4.805237831
2273,4.764227629
2274,4.834191845
2275,4.796894852
2276,4.823973319
2277,4.804513672
2278,4.789214948
2279,4.782316529
2280,4.802416955
2281,4.763811241
2282,4.783049764
2283,4.824162827
2284,4.780602017
2285,4.814182756
2286,4.786415431
2287,4.835907359
2288,4.807067851
2289,4.822913343
2290,4.790933136
2291,4.77701548
2292,4.810866043
2293,4.798920348
2294,4.811812983
2295,4.803746751
2296,4.797668701
2297,4.756406965
2298,4.804494135
2299,4.815874453
2300,4.803243951
2301,4.81801208
2302,4.779063597
2303,4.794569691
2304,4.791933535
2305,4.806094297
2306,4.75531835
2307,4.816133252
2308,4.800494912
2309,4.780110739
2310,4.807631154
2311,4.807362174
2312,4.797460259
2313,4.775072505
2314,4.811505019
2315,4.797515522
2316,4.787195479
2317,4.775183403
2318,4.810408995
2319,4.803535127
2320,4.779131755
2321,4.792889434
2322,4.820295268
2323,4.813278447
2324,4.798276786
2325,4.802519071
2326,4.771065268
2327,4.784492325
2328,4.812793789
2329,4.76109879
2330,4.767264158
2331,4.825692695
2332,4.778772928
2333,4.78613591
2334,4.803578394
2335,4.813765806
2336,4.817457354
2337,4.839754824
2338,4.799168327
2339,4.815208455
2340,4.783315429
2341,4.798363002
2342,4.800737672
2343,4.801934778
2344,4.816930618
2345,4.801717658
2346,4.794779573
2347,4.784269497
2348,4.79087947
2349,4.823705248
2350,4.796036841
2351,4.833621868
2352,4.796722494
2353,4.818947344
2354,4.789666771
2355,4.808426098
2356,4.812653034
2357,4.787778104
2358,4.830902739
2359,4.771728375
2360,4.797663454
2361,4.808749831
2362,4.803872026
2363,4.766080688
2364,4.781778768
2365,4.772642068
2366,4.803187018
2367,4.802399416
2368,4.757031945
2369,4.809486702
2370,4.812781084
2371,4.822592298
2372,4.834207103
2373,4.801914747
2374,4.80074717
2375,4.77077323
2376,4.818793104
2377,4.813650323
2378,4.818451279
2379,4.808794692
2380,4.792342715
2381,4.782412365
2382,4.811155299
2383,4.784360593
2384,4.804358365
2385,4.79501684
2386,4.780125183
2387,4.811415145
2388,4.788931251
2389,4.766654082
2390,4.776438347
2391,4.78083321
2392,4.777080825
2393,4.77900414
2394,4.841316441
2395,4.772290572
2396,4.784637455
2397,4.829182239
2398,4.797007317
2399,4.777411607
2400,4.788387311
2401,4.81255664
2402,4.768330324
2403,4.795010199
2404,4.831340794
2405,4.792822091
2406,4.798892933
2407,4.78723652
2408,4.74476164
2409,4.793486717
2410,4.816615397
2411,4.808533309
2412,4.777074194
2413,4.804891276
2414,4.774903182
2415,4.785154974
2416,4.817935776
2417,4.820367349
2418,4.786938879
2419,4.804447314
2420,4.801414292
2421,4.777281312
2422,4.814925595
2423,4.795803801
2424,4.810787237
2425,4.789097915
2426,4.823234263
2427,4.822031903
2428,4.805842543
2429,4.806626728
2430,4.822800521
2431,4.801158047
2432,4.813687651
2433,4.796624049
2434,4.804756233
2435,4.829020677
2436,4.817814971
2437,4.787332849
2438,4.817669704
2439,4.801254044
2440,4.746183722
2441,4.811449075
2442,4.789444813
2443,4.807061879
2444,4.83178892
2445,4.796767204
2446,4.805479545
2447,4.823402206
2448,4.805951537
2449,4.800163344
2450,4.792873911
2451,4.784239801
2452,4.798257435
2453,4.803925911
2454,4.800384031
2455,4.808933642
2456,4.80603574
2457,4.810342424
2458,4.781328449
2459,4.814924225
2460,4.787878489
2461,4.794489097
2462,4.788737048
2463,4.821705627
2464,4.792758961
2465,4.764620734
2466,4.821250298
2467,4.811532438
2468,4.785026883
2469,4.786844252
2470,4.856009638
2471,4.802785404
2472,4.78863526
2473,4.751359515
2474,4.8099506
2475,4.823818444
2476,4.783186272
2477,4.776625079
2478,4.819899896
2479,4.767752883
2480,4.802834273
2481,4.838861615
2482,4.811559169
2483,4.810299119
2484,4.785382841
2485,4.775023761
2486,4.812898875
2487,4.800948581
2488,4.806240465
2489,4.782046447
2490,4.763378363
2491,4.783075568
2492,4.808863646
2493,4.782863983
2494,4.835092788
2495,4.843996252
2496,4.812399828
2497,4.788980876
2498,4.810707139
2499,4.78918254
2500,4.779410527
2501,4.808487317
2502,4.779223058
2503,4.827255742
2504,4.76896839
2505,4.784955949
2506,4.823395787
2507,4.783747692
2508,4.800510395
2509,4.814264171
2510,4.797336916
2511,4.74724959
2512,4.802291115
2513,4.788345557
2514,4.817601233
2515,4.851431162
2516,4.797052535
2517,4.810114953
2518,4.799479767
2519,4.790028868
2520,4.781817236
2521,4.813646883
2522,4.783836987
2523,4.814786028
2524,4.799326932
2525,4.81958903
2526,4.811737953
2527,4.805233844
2528,4.760480542
2529,4.772023666
2530,4.828191672
2531,4.799475186
2532,4.820917784
2533,4.819005348
2534,4.779252443
2535,4.771603427
2536,4.814044841
2537,4.802375121
2538,4.796321048
2539,4.814357189
2540,4.820540557
2541,4.76134959
2542,4.777470715
2543,4.800786176
2544,4.787673591
2545,4.817983572
2546,4.785638305
2547,4.783340604
2548,4.813023573
2549,4.770371812
2550,4.802617804
2551,4.808130705
2552,4.851176579
2553,4.791561628
2554,4.803000112
2555,4.804573431
2556,4.799584723
2557,4.823351034
2558,4.791421833
2559,4.786532138
2560,4.805118952
2561,4.788283422
2562,4.771396977
2563,4.800682495
2564,4.781815168
2565,4.792218699
2566,4.792717261
2567,4.767403967
2568,4.801321805
2569,4.816834082
2570,4.79817326
2571,4.823068114
2572,4.818328576
2573,4.795960093
2574,4.774625356
2575,4.777972088
2576,4.78697032
2577,4.844621329
2578,4.791331579
2579,4.802301656
2580,4.800996365
2581,4.803192714
2582,4.817117523
2583,4.815368996
2584,4.807634663
2585,4.810950572
2586,4.791871156
2587,4.811608558
2588,4.79301457
2589,4.740437338
2590,4.793177732
2591,4.821387463
2592,4.791862552
2593,4.801240772
2594,4.793039701
2595,4.799365591
2596,4.801801427
2597,4.740957409
2598,4.808806628
2599,4.805412457
2600,4.780096299
2601,4.788404667
2602,4.802449802
2603,4.764990955
2604,4.810230476
2605,4.854696113
2606,4.795046877
2607,4.815626572
2608,4.767816839
2609,4.804259266
2610,4.804863842
2611,4.813153427
2612,4.813923977
2613,4.77651346
2614,4.784777136
2615,4.777662479
2616,4.784126484
2617,4.81772859
2618,4.784142591
2619,4.813633551
2620,4.786865535
2621,4.804529123
2622,4.792638289
2623,4.797085074
2624,4.797477723
2625,4.838683866
2626,4.819764392
2627,4.785947402
2628,4.837479533
2629,4.79919854
2630,4.822604471
2631,4.775226916
2632,4.79264292
2633,4.797146012
2634,4.783404508
2635,4.802496794
2636,4.771308643
2637,4.807410865
2638,4.819071105
2639,4.797535195
2640,4.793814659
2641,4.834491605
2642,4.78677746
2643,4.780718511
2644,4.789860195
2645,4.803850446
2646,4.826896387
2647,4.812462202
2648,4.807683529
2649,4.826910803
2650,4.809809239
2651,4.803389475
2652,4.784362693
2653,4.821521917
2654,4.808572462
2655,4.793224533
2656,4.796101859
2657,4.773347562
2658,4.777365399
2659,4.818970592
2660,4.78755255
2661,4.785006756
2662,4.815265642
2663,4.784006854
2664,4.782921352
2665,4.811564974
2666,4.804531033
2667,4.823356261
2668,4.791931002
2669,4.815051222
2670,4.779482617
2671,4.776859236
2672,4.803943772
2673,4.794406829
2674,4.829377822
2675,4.823248043
2676,4.807500604
2677,4.806461176
2678,4.784348607
2679,4.766860311
2680,4.816195168
2681,4.795426496
2682,4.83107607
2683,4.800516822
2684,4.800916625
2685,4.774995707
2686,4.774618203
2687,4.813827177
2688,4.839059187
2689,4.767555107
2690,4.824486994
2691,4.790038304
2692,4.787497324
2693,4.781288292
2694,4.828135649
2695,4.828953371
2696,4.801392143
2697,4.843062329
2698,4.805889585
2699,4.815857161
2700,4.813828399
2701,4.826124051
2702,4.777458544
2703,4.761918885
2704,4.816595369
2705,4.829952048
2706,4.801982865
2707,4.791517022
2708,4.797118785
2709,4.796366176
2710,4.797345659
2711,4.813969805
2712,4.78988078
2713,4.806013121
2714,4.820487989
2715,4.77634041
2716,4.808738009
2717,4.83349402
2718,4.82874095
2719,4.770646653
2720,4.808910703
2721,4.767623997
2722,4.825822755
2723,4.821856281
2724,4.838484989
2725,4.782492989
2726,4.810068788
2727,4.776130649
2728,4.793620555
2729,4.827520909
2730,4.809063277
2731,4.774190634
2732,4.793868534
2733,4.823094719
2734,4.78846678
2735,4.825426706
2736,4.768649808
2737,4.781853676
2738,4.796761739
2739,4.793490451
2740,4.801924095
2741,4.795908166
2742,4.793754867
2743,4.784170917
2744,4.823751237
2745,4.831604751
2746,4.792784135
2747,4.819971933
2748,4.786567969
2749,4.792901631
2750,4.797060285
2751,4.795294262
2752,4.801821221
2753,4.825786138
2754,4.805594611
2755,4.789623843
2756,4.780998523
2757,4.83790036
2758,4.785009802
2759,4.801996601
2760,4.741790516
2761,4.793158876
2762,4.804837182
2763,4.771516764
2764,4.824406641
2765,4.783911096
2766,4.782795095
2767,4.796011325
2768,4.802850595
2769,4.79204695
2770,4.786091826
2771,4.746625138
2772,4.80171249
2773,4.782235602
2774,4.781158504
2775,4.794743261
2776,4.80132428
2777,4.776897398
2778,4.755329945
2779,4.822772926
2780,4.797521468
2781,4.795797524
2782,4.787321947
2783,4.806055884
2784,4.777910623
2785,4.791808381
2786,4.768329697
2787,4.847952372
2788,4.802378318
2789,4.770783273
2790,4.818119849
2791,4.793257671
2792,4.767499766
2793,4.803596682
2794,4.793972284
2795,4.764871983
2796,4.792024993
2797,4.811751939
2798,4.812804898
2799,4.823152782
2800,4.769789267
2801,4.816817487
2802,4.787014926
2803,4.799168642
2804,4.807725582
2805,4.781596057
2806,4.831954562
2807,4.815167363
2808,4.790515861
2809,4.825138887
2810,4.765762578
2811,4.814408288
2812,4.799581286
2813,4.782793322
2814,4.815357179
2815,4.746555945
2816,4.794295839
2817,4.798101187
2818,4.786638444
2819,4.788813414
2820,4.813451519
2821,4.776386313
2822,4.767288796
2823,4.809745931
2824,4.786505151
2825,4.804020408
2826,4.789767008
2827,4.780392959
2828,4.797321356
2829,4.800017864
2830,4.80567403
2831,4.822810237
2832,4.823390762
2833,4.812708503
2834,4.827478017
2835,4.785877065
2836,4.798075242
2837,4.794013938
2838,4.816566649
2839,4.835335045
2840,4.804915556
2841,4.797808423
2842,4.817808871
2843,4.790397721
2844,4.801677643
2845,4.788703321
2846,4.765731126
2847,4.798054968
2848,4.779153249
2849,4.79382972
2850,4.826626819
2851,4.782346838
2852,4.774165244
2853,4.789055458
2854,4.831510179
2855,4.797043867
2856,4.804419618
2857,4.813812835
2858,4.832837475
2859,4.78425286
2860,4.815590344
2861,4.799608534
2862,4.81348855
2863,4.786591437
2864,4.809910035
2865,4.778684288
2866,4.796344669
2867,4.791477959
2868,4.835992447
2869,4.779168141
2870,4.809670781
2871,4.820318626
2872,4.807638652
2873,4.7868391
2874,4.830163308
2875,4.796169836
2876,4.796810195
2877,4.83782163
2878,4.786411188
2879,4.800414894
2880,4.822298895
2881,4.805920392
2882,4.833396429
2883,4.800122098
2884,4.810018438
2885,4.799060678
2886,4.824311045
2887,4.807891044
2888,4.79962494
2889,4.793227526
2890,4.829432112
2891,4.802778821
2892,4.806276681
2893,4.839004764
2894,4.780150301
2895,4.779480428
2896,4.768845142
2897,4.788445014
2898,4.812630507
2899,4.834970531
2900,4.806271072
2901,4.813132916
2902,4.792577432
2903,4.7857788
2904,4.801987021
2905,4.815832715
2906,4.800649118
2907,4.788343208
2908,4.802706062
2909,4.77441875
2910,4.79376544
2911,4.78114966
2912,4.820172366
2913,4.779541746
2914,4.818415686
2915,4.815579784
2916,4.804124019
2917,4.795528788
2918,4.806769025
2919,4.805442583
2920,4.824281688
2921,4.796438531
2922,4.820595621
2923,4.822417533
2924,4.764972127
2925,4.769362655
2926,4.79539993
2927,4.804304486
2928,4.808939712
2929,4.80890218
2930,4.794995775
2931,4.785694351
2932,4.76005048
2933,4.799843536
2934,4.822331457
2935,4.764642174
2936,4.818599881
2937,4.812069948
2938,4.786435997
2939,4.812616146
2940,4.798213573
2941,4.814398044
2942,4.795167834
2943,4.796022726
2944,4.799393929
2945,4.800083464
2946,4.810942059
2947,4.814156906
2948,4.795712747
2949,4.777664086
2950,4.80890202
2951,4.815923307
2952,4.76824707
2953,4.793782318
2954,4.785029572
2955,4.783009221
2956,4.806325289
2957,4.811229793
2958,4.758458571
2959,4.816041861
2960,4.801246049
2961,4.808170237
2962,4.813880851
2963,4.801321871
2964,4.807036728
2965,4.781400436
2966,4.818854147
2967,4.819113979
2968,4.829371031
2969,4.807217872
2970,4.80770976
2971,4.806905717
2972,4.795967625
2973,4.77469102
2974,4.813183851
2975,4.784465492
2976,4.788979408
2977,4.80117351
2978,4.794701443
2979,4.805207986
2980,4.780453176
2981,4.79853918
2982,4.809237383
2983,4.771851246
2984,4.779673225
2985,4.824197311
2986,4.805362027
2987,4.798596285
2988,4.777675456
2989,4.794108936
2990,4.817633501
2991,4.843391004
2992,4.8039456
2993,4.827599731
2994,4.813489395
2995,4.802701819
2996,4.797635806
2997,4.80713037
2998,4.773488718
2999,4.812154073
3000,4.798453311
3001,4.848591471
3002,4.791852661
3003,4.823102701
3004,4.779922599
3005,4.811579445
3006,4.779941386
3007,4.787721943
3008,4.804507293
3009,4.814976601
3010,4.768254407
3011,4.799677076
3012,4.81940383
3013,4.807065896
3014,4.760047219
3015,4.770210483
3016,4.829248253
3017,4.79326618
3018,4.831844266
3019,4.784118598
3020,4.8140932
3021,4.810660267
3022,4.803613731
3023,4.77791544
3024,4.820345615
3025,4.803307143
3026,4.783446952
3027,4.804712113
3028,4.824017005
3029,4.795864969
3030,4.803703864
3031,4.778683218
3032,4.812003195
3033,4.777956921
3034,4.792558348
3035,4.79340091
3036,4.789761442
3037,4.80032441
3038,4.758774424
3039,4.804950857
3040,4.813663612
3041,4.811479319
3042,4.786093672
3043,4.797394622
3044,4.770272828
3045,4.795237144
3046,4.797456769
3047,4.794952507
3048,4.80130168
3049,4.795706241
3050,4.792047218
3051,4.779658812
3052,4.821783702
3053,4.830169311
3054,4.801592494
3055,4.810044946
3056,4.795593251
3057,4.827393675
3058,4.8161832
3059,4.782272554
3060,4.813477719
3061,4.80894063
3062,4.817964921
3063,4.776119581
3064,4.792644886
3065,4.803655363
3066,4.801509937
3067,4.771715424
3068,4.799123417
3069,4.807261517
3070,4.795598305
3071,4.789110093
3072,4.844827467
3073,4.794551092
3074,4.810398969
3075,4.823269125
3076,4.825597851
3077,4.802668397
3078,4.808992205
3079,4.809632145
3080,4.836165075
3081,4.777461152
3082,4.819662011
3083,4.784877594
3084,4.834403007
3085,4.81126433
3086,4.831191664
3087,4.809427374
3088,4.805736512
3089,4.785833972
3090,4.840403557
3091,4.828317304
3092,4.793743097
3093,4.821570502
3094,4.810178869
3095,4.830230824
3096,4.785145571
3097,4.831439611
3098,4.756447177
3099,4.795557281
3100,4.800172721
3101,4.80653301
3102,4.802568723
3103,4.777631505
3104,4.781578006
3105,4.763752613
3106,4.802345531
3107,4.842474557
3108,4.784150328
3109,4.783202656
3110,4.815026013
3111,4.755977594
3112,4.778172072
3113,4.810801079
3114,4.808335656
3115,4.809421406
3116,4.811286239
3117,4.813497885
3118,4.791621889
3119,4.801381617
3120,4.8240662
3121,4.791632277
3122,4.784750794
3123,4.804657947
3124,4.799902566
3125,4.811000465
3126,4.828834875
3127,4.831742927
3128,4.759017226
3129,4.77865585
3130,4.811586705
3131,4.766041697
3132,4.814967884
3133,4.825385307
3134,4.789548756
3135,4.822289357
3136,4.779987756
3137,4.786207225
3138,4.793622452
3139,4.794992527
3140,4.817131459
3141,4.793511477
3142,4.802121909
3143,4.793461002
3144,4.78768888
3145,4.77331922
3146,4.800606297
3147,4.808605826
3148,4.846728424
3149,4.792988472
3150,4.794573408
3151,4.807339349
3152,4.752813462
3153,4.803744354
3154,4.818748588
3155,4.824479186
3156,4.844601571
3157,4.824120769
3158,4.799491633
3159,4.855634427
3160,4.818750174
3161,4.834396694
3162,4.805216163
3163,4.798121446
3164,4.794497185
3165,4.760677724
3166,4.7924519
3167,4.813446449
3168,4.827117648
3169,4.809849039
3170,4.794993284
3171,4.795781616
3172,4.795024923
3173,4.774591945
3174,4.790677102
3175,4.833441525
3176,4.766630463
3177,4.806134242
3178,4.795543352
3179,4.815454871
3180,4.806505659
3181,4.774163364
3182,4.849897277
3183,4.808256316
3184,4.76881992
3185,4.769113291
3186,4.808673772
3187,4.793358687
3188,4.800412327
3189,4.813518221
3190,4.791895506
3191,4.856096957
3192,4.778787293
3193,4.808099762
3194,4.826159354
3195,4.808924097
3196,4.791199184
3197,4.805445414
3198,4.811839078
3199,4.802825707
3200,4.803244959
3201,4.800817628
3202,4.793522816
3203,4.771820046
3204,4.794776624
3205,4.777985363
3206,4.822983327
3207,4.826082467
3208,4.811537673
3209,4.815735729
3210,4.786529393
3211,4.814397572
3212,4.798914271
3213,4.780793743
3214,4.803700753
3215,4.789419635
3216,4.798157637
3217,4.76714496
3218,4.79688967
3219,4.74637559
3220,4.788704936
3221,4.81945079
3222,4.778137348
3223,4.795650076
3224,4.795280334
3225,4.792497098
3226,4.803275466
3227,4.780779508
3228,4.765034446
3229,4.79594614
3230,4.804369292
3231,4.796742176
3232,4.804278899
3233,4.798167029
3234,4.80558707
3235,4.810675296
3236,4.787579057
3237,4.756052088
3238,4.825669804
3239,4.834588844
3240,4.836783462
3241,4.819104359
3242,4.773628997
3243,4.75264648
3244,4.801182795
3245,4.821538783
3246,4.745681768
3247,4.815000829
3248,4.747049812
3249,4.768139137
3250,4.785477093
3251,4.807793011
3252,4.808268944
3253,4.789338162
3254,4.798574225
3255,4.808314693
3256,4.770910347
3257,4.791391261
3258,4.807836347
3259,4.807166429
3260,4.813083589
3261,4.789270571
3262,4.825668983
3263,4.800030169
3264,4.796292061
3265,4.819345733
3266,4.797933061
3267,4.775488176
3268,4.820772532
3269,4.805065068
3270,4.79177868
3271,4.779452345
3272,4.763903823
3273,4.813365266
3274,4.806461792
3275,4.794510807
3276,4.792958409
3277,4.792416802
3278,4.80167646
3279,4.805585029
3280,4.78182196
3281,4.789678744
3282,4.77682437
3283,4.783929834
3284,4.813102014
3285,4.838217594
3286,4.819673172
3287,4.790452454
3288,4.797645451
3289,4.802429688
3290,4.791973231
3291,4.781598148
3292,4.800163163
3293,4.770121806
3294,4.794133455
3295,4.760063989
3296,4.791293435
3297,4.804169529
3298,4.781835642
3299,4.785194886
3300,4.830897323
3301,4.801307717
3302,4.826755326
3303,4.768136168
3304,4.801144516
3305,4.793214655
3306,4.78658031
3307,4.822757656
3308,4.844278034
3309,4.816907897
3310,4.788931163
3311,4.812767583
3312,4.807723171
3313,4.784666441
3314,4.777101471
3315,4.834384478
3316,4.789801635
3317,4.797977822
3318,4.774134533
3319,4.812110802
3320,4.820755146
3321,4.814744431
3322,4.847002206
3323,4.829286873
3324,4.778911937
3325,4.759249552
3326,4.820843086
3327,4.817821897
3328,4.800440781
3329,4.789957991
3330,4.76437935
3331,4.785436554
3332,4.830418532
3333,4.80727589
3334,4.800322351
3335,4.784625705
3336,4.777306668
3337,4.794622414
3338,4.829517835
3339,4.80814255
3340,4.804935083
3341,4.764159572
3342,4.775339181
3343,4.78040027
3344,4.797681656
3345,4.840578408
3346,4.789438804
3347,4.810236748
3348,4.813177078
3349,4.796889885
3350,4.772502698
3351,4.813416643
3352,4.797438634
3353,4.799447446
3354,4.819076521
3355,4.800701853
3356,4.787915626
3357,4.800173763
3358,4.802634149
3359,4.781320422
3360,4.813178626
3361,4.83512172
3362,4.770795889
3363,4.840990756
3364,4.754121435
3365,4.817450961
3366,4.792337719
3367,4.773872267
3368,4.801919801
3369,4.801810864
3370,4.786537434
3371,4.820111927
3372,4.767410828
3373,4.778907985
3374,4.794802533
3375,4.845166753
3376,4.800205854
3377,4.780808322
3378,4.782537973
3379,4.834949822
3380,4.819653675
3381,4.843720555
3382,4.796815678
3383,4.817965009
3384,4.801878335
3385,4.813495944
3386,4.805930877
3387,4.815319179
3388,4.756991977
3389,4.813113144
3390,4.782806775
3391,4.775156976
3392,4.797044981
3393,4.816811792
3394,4.804404986
3395,4.804207572
3396,4.778941421
3397,4.815015556
3398,4.802571828
3399,4.808998821
3400,4.832106564
3401,4.802745555
3402,4.805869372
3403,4.774728342
3404,4.816176717
3405,4.813906607
3406,4.788515482
3407,4.80697264
3408,4.78484311
3409,4.791392777
3410,4.801830671
3411,4.805870498
3412,4.806578294
3413,4.803047592
3414,4.832545906
3415,4.80742848
3416,4.776190834
3417,4.826299055
3418,4.805135794
3419,4.801066652
3420,4.788740159
3421,4.805893404
3422,4.786990566
3423,4.779676545
3424,4.82409197
3425,4.803124468
3426,4.776022635
3427,4.798365498
3428,4.796604079
3429,4.8014472
3430,4.788355269
3431,4.783835583
3432,4.782267489
3433,4.774116895
3434,4.804220062
3435,4.822972715
3436,4.82238367
3437,4.76943221
3438,4.803745485
3439,4.771877492
3440,4.802456684
3441,4.830013836
3442,4.794293165
3443,4.770954861
3444,4.831795443
3445,4.814505298
3446,4.79109843
3447,4.803455719
3448,4.830621111
3449,4.778048189
3450,4.790755855
3451,4.789532814
3452,4.78682109
3453,4.81373351
3454,4.790507303
3455,4.804522637
3456,4.785803104
3457,4.822469155
3458,4.809935622
3459,4.79718605
3460,4.80012451
3461,4.785603343
3462,4.786676154
3463,4.802745251
3464,4.802790011
3465,4.823519371
3466,4.80543776
3467,4.76542399
3468,4.790542463
3469,4.775814537
3470,4.807756315
3471,4.797799594
3472,4.788167255
3473,4.769615036
3474,4.851545858
3475,4.779511026
3476,4.811321334
3477,4.775589447
3478,4.822478502
3479,4.805177411
3480,4.798646314
3481,4.800332531
3482,4.822177233
3483,4.803380026
3484,4.798322512
3485,4.816113263
3486,4.741914906
3487,4.827667103
3488,4.811312998
3489,4.767254025
3490,4.780148627
3491,4.794999542
3492,4.780471137
3493,4.78140741
3494,4.808341334
3495,4.790956342
3496,4.785317152
3497,4.786865536
3498,4.787860823
3499,4.78994451
3500,4.77787028
3501,4.807753241
3502,4.812037137
3503,4.803970987
3504,4.838179493
3505,4.803643864
3506,4.795717156
3507,4.771972194
3508,4.815200536
3509,4.800513136
3510,4.81916558
3511,4.793681178
3512,4.806800222
3513,4.782021278
3514,4.817886563
3515,4.796459443
3516,4.810654259
3517,4.81848324
3518,4.821747383
3519,4.802156491
3520,4.79710893
3521,4.794539983
3522,4.791621518
3523,4.794252403
3524,4.836226378
3525,4.812180555
3526,4.793895521
3527,4.793935731
3528,4.80265977
3529,4.827901866
3530,4.768411396
3531,4.791394406
3532,4.766699301
3533,4.81944025
3534,4.757897239
3535,4.783623888
3536,4.788671207
3537,4.819001353
3538,4.800682228
3539,4.77089795
3540,4.801941617
3541,4.829702196
3542,4.783081446
3543,4.808354609
3544,4.78579984
3545,4.775412344
3546,4.810879461
3547,4.806487208
3548,4.802200931
3549,4.819269999
3550,4.78716237
3551,4.791024891
3552,4.792159203
3553,4.787714956
3554,4.805052245
3555,4.805680453
3556,4.817562736
3557,4.788082982
3558,4.812992986
3559,4.791595384
3560,4.804875123
3561,4.777798378
3562,4.80705221
3563,4.822205538
3564,4.821170285
3565,4.821435893
3566,4.810607349
3567,4.81209356
3568,4.78864622
3569,4.789202202
3570,4.76684109
3571,4.800363874
3572,4.822742151
3573,4.806106047
3574,4.779394904
3575,4.762971643
3576,4.806368512
3577,4.82122152
3578,4.781154114
3579,4.79118217
3580,4.807888211
3581,4.837885544
3582,4.828466014
3583,4.780026972
3584,4.788524041
3585,4.722260786
3586,4.810740734
3587,4.814569204
3588,4.757660761
3589,4.833210445
3590,4.79508237
3591,4.825987079
3592,4.805976907
3593,4.818846747
3594,4.803862158
3595,4.779097851
3596,4.821042238
3597,4.828954784
3598,4.781991702
3599,4.790126464
3600,4.757937721
3601,4.777982303
3602,4.809964126
3603,4.801573369
3604,4.809048046
3605,4.802873925
3606,4.797833514
3607,4.79639521
3608,4.767354375
3609,4.793721098
3610,4.800999358
3611,4.815601258
3612,4.81735026
3613,4.799700941
3614,4.797710622
3615,4.765427418
3616,4.784427815
3617,4.805212171
3618,4.820972832
3619,4.816958946
3620,4.79327658
3621,4.797609804
3622,4.796732348
3623,4.806916908
3624,4.813920967
3625,4.790642342
3626,4.774336355
3627,4.810971888
3628,4.799218527
3629,4.811225173
3630,4.795812941
3631,4.795515601
3632,4.796978428
3633,4.768641746
3634,4.784149029
3635,4.820203859
3636,4.784539266
3637,4.804175904
3638,4.749665555
3639,4.802151328
3640,4.809916054
3641,4.839268764
3642,4.785526867
3643,4.78385209
3644,4.817149365
3645,4.819748673
3646,4.791698967
3647,4.826634439
3648,4.813446644
3649,4.782574618
3650,4.783368155
3651,4.803543726
3652,4.841016924
3653,4.799883566
3654,4.802945939
3655,4.782729148
3656,4.807910754
3657,4.799662352
3658,4.809488609
3659,4.772529013
3660,4.791872508
3661,4.791173938
3662,4.771921416
3663,4.791633834
3664,4.816977045
3665,4.800516747
3666,4.818554041
3667,4.801246829
3668,4.800897672
3669,4.82241358
3670,4.787443353
3671,4.802168503
3672,4.779843434
3673,4.804930101
3674,4.774608162
3675,4.813853961
3676,4.807637483
3677,4.824246118
3678,4.79451495
3679,4.818428498
3680,4.827263657
3681,4.823971074
3682,4.767453148
3683,4.821101176
3684,4.7968258
3685,4.77576762
3686,4.816778842
3687,4.763285094
3688,4.78681069
3689,4.834610147
3690,4.823178493
3691,4.797109866
3692,4.813777357
3693,4.843083881
3694,4.820679545
3695,4.80684557
3696,4.827543996
3697,4.795422632
3698,4.774221634
3699,4.793094333
3700,4.768076405
3701,4.820864133
3702,4.788598942
3703,4.786274108
3704,4.783356817
3705,4.812609122
3706,4.790617895
3707,4.817398508
3708,4.802054484
3709,4.81917365
3710,4.78471459
3711,4.78375416
3712,4.812563027
3713,4.824709533
3714,4.794007256
3715,4.809369483
3716,4.785240665
3717,4.798940919
3718,4.80510243
3719,4.794350216
3720,4.785012341
3721,4.784881952
3722,4.797289256
3723,4.782103376
3724,4.82789413
3725,4.82908221
3726,4.797068273
3727,4.791963859
3728,4.817948428
3729,4.800064802
3730,4.75806213
3731,4.845868114
3732,4.834498047
3733,4.79641172
3734,4.777603825
3735,4.800213696
3736,4.806518062
3737,4.731644556
3738,4.814081889
3739,4.773327052
3740,4.783332142
3741,4.814066693
3742,4.807183386
3743,4.834979195
3744,4.820933447
3745,4.813617342
3746,4.764004537
3747,4.794776125
3748,4.819172166
3749,4.787671732
3750,4.768753157
3751,4.800573364
3752,4.793342995
3753,4.759935388
3754,4.801440684
3755,4.838243345
3756,4.777162054
3757,4.754976089
3758,4.801418395
3759,4.805128306
3760,4.810946523
3761,4.7686218
3762,4.788777016
3763,4.82028609
3764,4.805838703
3765,4.782494245
3766,4.741404819
3767,4.766691211
3768,4.731632307
3769,4.784428986
3770,4.812409213
3771,4.852530944
3772,4.770468478
3773,4.768715324
3774,4.788641337
3775,4.793976267
3776,4.813938063
3777,4.784241648
3778,4.777802445
3779,4.80755864
3780,4.820894428
3781,4.804671792
3782,4.824635814
3783,4.821897338
3784,4.778561728
3785,4.764365572
3786,4.816027275
3787,4.755196684
3788,4.806520104
3789,4.786070296
3790,4.810870382
3791,4.782927669
3792,4.808239209
3793,4.756573389
3794,4.826248556
3795,4.804414079
3796,4.785344134
3797,4.82377651
3798,4.804365499
3799,4.773547387
3800,4.791852924
3801,4.777720498
3802,4.809714233
3803,4.817099298
3804,4.811747
3805,4.789224678
3806,4.803687197
3807,4.786480244
3808,4.825823734
3809,4.768384732
3810,4.806752304
3811,4.811875194
3812,4.809202027
3813,4.809036232
3814,4.816410936
3815,4.777921459
3816,4.830755204
3817,4.827012293
3818,4.828895715
3819,4.810343971
3820,4.817038175
3821,4.806848599
3822,4.816036922
3823,4.79110282
3824,4.771196129
3825,4.823939052
3826,4.786767257
3827,4.812414277
3828,4.814024896
3829,4.811313642
3830,4.770112678
3831,4.823822356
3832,4.7996769
3833,4.804272827
3834,4.805751953
3835,4.825047184
3836,4.78648278
3837,4.799452002
3838,4.791529876
3839,4.800794182
3840,4.787730217
3841,4.799999791
3842,4.830255266
3843,4.790491188
3844,4.781383179
3845,4.783688245
3846,4.807630158
3847,4.856543722
3848,4.771071576
3849,4.81318833
3850,4.806098574
3851,4.811298245
3852,4.829861915
3853,4.777351588
3854,4.803132531
3855,4.809527952
3856,4.795018076
3857,4.815894361
3858,4.815041514
3859,4.800053018
3860,4.829665117
3861,4.837927122
3862,4.80595638
3863,4.789405071
3864,4.834392742
3865,4.768270686
3866,4.801661052
3867,4.784083652
3868,4.757502591
3869,4.820866815
3870,4.814536471
3871,4.798978465
3872,4.792711901
3873,4.796530855
3874,4.765144724
3875,4.776043037
3876,4.799505427
3877,4.812795766
3878,4.819523728
3879,4.807725422
3880,4.799639088
3881,4.768730281
3882,4.798917181
3883,4.810211626
3884,4.753395888
3885,4.797883041
3886,4.828948368
3887,4.829332979
3888,4.797134533
3889,4.840939862
3890,4.784016775
3891,4.788629856
3892,4.779476199
3893,4.797715571
3894,4.746655474
3895,4.792771571
3896,4.774176954
3897,4.78866515
3898,4.789638572
3899,4.775831664
3900,4.791545332
3901,4.823099681
3902,4.788940542
3903,4.81907812
3904,4.792738923
3905,4.800632675
3906,4.793202955
3907,4.817639668
3908,4.832241618
3909,4.823129174
3910,4.803632955
3911,4.795128562
3912,4.814781438
3913,4.797768289
3914,4.797574934
3915,4.778677864
3916,4.81514849
3917,4.789749131
3918,4.839642029
3919,4.837346396
3920,4.809611309
3921,4.795463118
3922,4.784805121
3923,4.770277132
3924,4.827594669
3925,4.819299698
3926,4.818753066
3927,4.815740418
3928,4.797359457
3929,4.792797181
3930,4.777381091
3931,4.800490225
3932,4.822445395
3933,4.806029151
3934,4.799624473
3935,4.823448764
3936,4.816596126
3937,4.810447207
3938,4.802627893
3939,4.7650206
3940,4.822241168
3941,4.802275432
3942,4.792260169
3943,4.810609387
3944,4.778336946
3945,4.797417316
3946,4.81743608
3947,4.85351107
3948,4.799171089
3949,4.808262116
3950,4.798566448
3951,4.805459334
3952,4.790506247
3953,4.861131219
3954,4.820528569
3955,4.777959555
3956,4.77368215
3957,4.845095656
3958,4.795448774
3959,4.834569336
3960,4.80604309
3961,4.789654864
3962,4.822366392
3963,4.796658531
3964,4.814540274
3965,4.778795146
3966,4.765013918
3967,4.759585293
3968,4.839301384
3969,4.801091957
3970,4.778274207
3971,4.816009999
3972,4.819729461
3973,4.770469851
3974,4.813853196
3975,4.806696625
3976,4.793833792
3977,4.785808579
3978,4.816718513
3979,4.762813041
3980,4.793538091
3981,4.828186249
3982,4.81966136
3983,4.763696829
3984,4.801361586
3985,4.822424227
3986,4.791618595
3987,4.813276026
3988,4.822233438
3989,4.781152429
3990,4.835311456
3991,4.793312074
3992,4.807089507
3993,4.8113403
3994,4.816562808
3995,4.824308549
3996,4.807704085
3997,4.81466544
3998,4.806873136
3999,4.811287868
4000,4.772933241
