Raman Shift,Intensity
85.009,5164.0
86.404,5323.0
87.798,5506.0
89.193,6071.0
90.587,6608.0
91.981,6791.0
93.375,7478.0
94.768,7915.0
96.161,8543.0
97.554,9550.0
98.947,9842.0
100.34,9712.0
101.732,9189.0
103.124,8591.0
104.516,8196.0
105.908,8212.0
107.3,7949.0
108.691,8157.0
110.082,8262.0
111.473,8105.0
112.864,7851.0
114.254,7250.0
115.644,7129.0
117.034,7012.0
118.424,6546.0
119.813,6382.0
121.203,6523.0
122.592,6400.0
123.981,6404.8
125.369,6276.0
126.758,6396.0
128.146,6257.0
129.534,6259.0
130.922,6386.0
132.309,6319.0
133.696,6447.0
135.083,6448.0
136.47,6871.0
137.857,6904.0
139.243,7104.0
140.63,6994.0
142.016,7316.0
143.401,7282.0
144.787,7555.0
146.172,7743.0
147.557,7707.0
148.942,7925.0
150.327,8085.0
151.711,8248.0
153.096,8478.0
154.48,8550.0
155.863,8669.0
157.247,8855.0
158.63,9162.0
160.013,9424.0
161.396,9771.0
162.779,9970.0
164.161,10119.502
165.544,10215.242
166.926,10234.0
168.308,10161.0
169.689,10029.0
171.07,9809.0
172.452,9703.0
173.833,9637.0
175.213,9436.0
176.594,9417.0
177.974,9226.0
179.354,9374.0
180.734,9316.0
182.114,9280.0
183.493,9517.0
184.872,9704.0
186.251,9797.0
187.63,10109.0
189.008,10227.0
190.387,10536.0
191.765,10709.0
193.143,10992.0
194.52,11220.0
195.898,10997.0
197.275,11123.0
198.652,11283.0
200.029,10939.0
201.405,10773.0
202.782,10529.0
204.158,10577.0
205.534,10723.0
206.909,10825.0
208.285,10670.0
209.66,10355.0
211.035,10356.0
212.41,10214.0
213.784,10480.0
215.159,10538.0
216.533,10494.0
217.907,10226.0
219.281,9815.0
220.654,9512.0
222.027,8974.0
223.4,8675.0
224.773,8304.0
226.146,8081.0
227.518,7920.0
228.891,7711.0
230.263,7572.0
231.634,7538.0
233.006,7575.0
234.377,7651.0
235.748,7719.0
237.119,7968.0
238.49,8057.0
239.86,8532.0
241.231,8799.0
242.601,9282.0
243.97,9864.0
245.34,10536.0
246.709,11485.0
248.079,12606.0
249.448,14313.0
250.816,16521.531
252.185,19066.402
253.553,22276.0
254.921,25520.0
256.289,29550.0
257.657,33696.0
259.024,37358.0
260.391,39267.0
261.758,39618.0
263.125,37716.0
264.492,35181.0
265.858,31760.0
267.224,28192.0
268.59,25170.0
269.956,22258.189
271.321,19396.0
272.687,17267.0
274.052,15411.0
275.416,13756.0
276.781,12625.788
278.146,11953.0
279.51,10923.0
280.874,10500.0
282.237,9779.0
283.601,9462.0
284.964,8990.0
286.327,8629.0
287.69,8560.0
289.053,8290.0
290.416,8010.0
291.778,7993.0
293.14,7775.0
294.502,7717.0
295.863,7618.0
297.225,7570.0
298.586,7520.0
299.947,7524.0
301.308,7370.0
302.668,7370.0
304.029,7332.0
305.389,7467.0
306.749,7385.0
308.108,7379.0
309.468,7393.0
310.827,7382.0
312.186,7405.0
313.545,7312.0
314.903,7344.0
316.262,7305.0
317.62,7331.0
318.978,7337.017
320.336,7270.0
321.693,7326.0
323.051,7266.0
324.408,7179.0
325.765,7072.0
327.121,7048.745
328.478,6986.0
329.834,6983.0
331.19,7015.0
332.546,6982.0
333.902,7193.0
335.257,7108.0
336.612,6978.0
337.967,7320.0
339.322,6977.0
340.677,6976.0
342.031,6904.0
343.385,6973.0
344.739,6985.0
346.093,7044.34
347.446,7138.45
348.799,7218.0
350.153,7363.0
351.505,7467.0
352.858,7619.0
354.21,7748.368
355.563,7925.116
356.915,8000.0
358.267,8275.0
359.618,8366.0
360.969,8479.0
362.321,8780.0
363.672,8791.0
365.022,9116.0
366.373,9225.0
367.723,9359.0
369.073,9673.0
370.423,9870.0
371.773,10115.0
373.122,10425.0
374.471,10592.0
375.821,10931.0
377.169,10872.0
378.518,11218.0
379.866,10984.0
381.215,11200.0
382.563,11394.0
383.91,11414.0
385.258,11474.0
386.605,11558.0
387.952,11908.0
389.299,11913.0
390.646,12431.0
391.992,12880.0
393.339,13014.0
394.685,13749.0
396.031,13665.0
397.376,14265.0
398.722,14524.0
400.067,15035.0
401.412,15600.0
402.757,16087.0
404.101,16593.0
405.446,16853.0
406.79,17085.365
408.134,17272.0
409.478,17234.0
410.821,17234.0
412.165,17133.0
413.508,16529.0
414.851,16459.0
416.193,15899.0
417.536,15118.0
418.878,14720.0
420.22,14258.0
421.562,13806.0
422.904,13035.0
424.245,12740.0
425.586,12380.0
426.927,11884.0
428.268,11612.0
429.609,11159.0
430.949,10927.0
432.289,10734.0
433.629,10369.0
434.969,9810.0
436.309,9980.0
437.648,9093.0
438.987,8999.0
440.326,8690.0
441.665,8349.0
443.003,8212.0
444.342,8029.0
445.68,7778.0
447.018,7631.0
448.355,7494.0
449.693,7208.0
451.03,7105.0
452.367,6986.0
453.704,7006.0
455.041,6838.0
456.377,6764.0
457.713,6687.0
459.049,6688.0
460.385,6692.0
461.721,6703.0
463.056,6762.0
464.391,6723.0
465.726,6614.0
467.061,6728.0
468.395,6612.0
469.73,6566.0
471.064,6681.0
472.398,6516.0
473.731,6707.0
475.065,6489.0
476.398,6525.0
477.731,6489.0
479.064,6522.0
480.397,6491.0
481.729,6386.0
483.062,6510.0
484.394,6387.129
485.725,6383.656
487.057,6256.0
488.389,6318.0
489.72,6261.0
491.051,6234.0
492.382,6176.0
493.712,6162.0
495.043,6162.0
496.373,6103.0
497.703,6022.0
499.032,6032.0
500.362,5970.0
501.691,5974.0
503.02,5931.0
504.349,5912.0
505.678,5913.0
507.007,5857.0
508.335,5804.0
509.663,5895.0
510.991,5858.0
512.319,5912.0
513.646,5834.0
514.973,5818.0
516.3,5840.0
517.627,5832.0
518.954,5947.0
520.28,5905.0
521.607,5953.0
522.933,6062.0
524.259,6002.0
525.584,6092.0
526.91,6178.0
528.235,6298.0
529.56,6236.0
530.885,6358.0
532.209,6372.0
533.534,6436.0
534.858,6555.0
536.182,6560.0
537.506,6639.0
538.829,6597.0
540.152,6697.0
541.476,6615.0
542.799,6751.0
544.121,6588.0
545.444,6664.0
546.766,6701.0
548.088,6690.0
549.41,6685.0
550.732,6818.0
552.053,6767.0
553.375,6862.0
554.696,6881.0
556.017,6827.0
557.337,6920.0
558.658,6934.0
559.978,6974.0
561.298,6959.0
562.618,7081.0
563.938,7002.0
565.257,7054.0
566.576,7092.0
567.895,6961.0
569.214,7090.0
570.533,7220.0
571.851,7141.0
573.17,7186.0
574.488,7154.0
575.805,7188.0
577.123,7142.0
578.44,7072.0
579.758,7080.351
581.075,7054.379
582.391,7060.0
583.708,7072.0
585.024,7108.0
586.341,7155.0
587.657,7229.0
588.972,7316.0
590.288,7402.0
591.603,7360.0
592.918,7373.0
594.233,7404.0
595.548,7612.0
596.863,7690.0
598.177,7758.0
599.491,7760.0
600.805,7922.0
602.119,8044.0
603.432,8121.0
604.746,8187.0
606.059,8399.0
607.372,8465.0
608.685,8611.0
609.997,8768.0
611.309,8842.0
612.621,8918.0
613.933,9054.0
615.245,9306.0
616.557,9378.0
617.868,9587.0
619.179,9552.0
620.49,9748.0
621.801,9661.0
623.111,10024.0
624.421,9899.0
625.731,10161.0
627.041,10006.0
628.351,10304.0
629.66,10167.0
630.97,10240.0
632.279,10405.0
633.588,10268.0
634.896,10286.0
636.205,10191.0
637.513,10214.0
638.821,10112.0
640.129,10081.0
641.437,9911.0
642.744,9734.0
644.051,9625.0
645.358,9449.0
646.665,9319.0
647.972,9238.0
649.278,9043.0
650.584,9156.0
651.89,8883.0
653.196,8931.0
654.502,8817.0
655.807,8688.0
657.113,8523.0
658.418,8623.0
659.722,8602.0
661.027,8516.0
662.331,8495.0
663.636,8552.0
664.94,8547.0
666.244,8517.0
667.547,8624.0
668.851,8772.0
670.154,8803.799
671.457,8783.0
672.76,8968.0
674.062,9220.0
675.365,9312.0
676.667,9634.0
677.969,9809.131
679.271,10074.0
680.572,10406.0
681.874,10868.0
683.175,11534.0
684.476,12057.0
685.777,12882.0
687.077,13960.0
688.378,14842.0
689.678,15991.0
690.978,17566.0
692.278,18990.0
693.577,20452.0
694.877,23166.0
696.176,24751.0
697.475,26902.0
698.774,28294.0
700.072,30248.0
701.371,30120.0
702.669,29416.0
703.967,27752.0
705.265,26945.0
706.562,24784.0
707.86,22134.0
709.157,19894.0
710.454,18168.0
711.751,16303.0
713.047,15306.0
714.344,13879.0
715.64,13134.0
716.936,12110.0
718.232,11624.0
719.527,11240.0
720.823,10658.0
722.118,10364.0
723.413,10118.0
724.708,9856.0
726.002,9671.0
727.297,9542.0
728.591,9349.0
729.885,9436.0
731.179,9510.0
732.472,9538.0
733.766,9538.0
735.059,9681.0
736.352,9815.0
737.645,9910.0
738.937,10130.0
740.23,10281.037
741.522,10496.0
742.814,10636.0
744.106,10828.0
745.397,10946.0
746.689,11028.0
747.98,10927.0
749.271,11069.0
750.562,10936.0
751.853,10920.0
753.143,10557.0
754.433,10628.0
755.723,10322.0
757.013,10047.0
758.303,9902.0
759.592,9488.0
760.881,9297.0
762.17,8999.0
763.459,8746.681
764.748,8606.0
766.036,8291.0
767.325,8143.0
768.613,7911.0
769.901,7763.0
771.188,7560.0
772.476,7406.0
773.763,7328.972
775.05,7184.0
776.337,7238.0
777.624,7139.0
778.91,7158.0
780.196,7097.647
781.482,7002.0
782.768,6993.0
784.054,6912.0
785.339,6903.0
786.625,6943.0
787.91,6831.0
789.195,6954.0
790.479,6823.0
791.764,6876.0
793.048,6920.0
794.332,6852.0
795.616,6877.222
796.9,6863.333
798.183,6828.0
799.467,6836.0
800.75,6801.0
802.033,6769.0
803.316,6640.0
804.598,6800.0
805.88,6631.0
807.163,6713.0
808.445,6648.0
809.726,6656.0
811.008,6600.0
812.289,6587.0
813.57,6588.0
814.851,6676.0
816.132,6727.0
817.413,6777.0
818.693,6799.0
819.973,6949.0
821.253,7086.0
822.533,7134.072
823.813,7189.398
825.092,7234.0
826.371,7198.0
827.65,7140.0
828.929,7124.0
830.208,7049.0
831.486,6885.0
832.764,6740.0
834.042,6624.0
835.32,6622.0
836.598,6431.0
837.875,6406.0
839.152,6225.0
840.429,6294.0
841.706,6299.0
842.983,6157.0
844.259,6133.0
845.536,6215.0
846.812,6111.0
848.088,6169.0
849.363,6106.0
850.639,6150.0
851.914,6128.0
853.189,6116.0
854.464,6202.0
855.739,6343.0
857.013,6347.0
858.288,6161.0
859.562,6317.0
860.836,6298.0
862.11,6417.0
863.383,6327.0
864.656,6451.0
865.93,6446.0
867.203,6526.0
868.475,6563.0
869.748,6646.0
871.02,6606.0
872.292,6676.0
873.564,6695.0
874.836,6709.562
876.108,6799.0
877.379,6795.0
878.65,6854.0
879.922,6974.0
881.192,6898.0
882.463,7015.0
883.733,7124.0
885.004,7203.0
886.274,7258.0
887.544,7355.0
888.813,7514.0
890.083,7553.0
891.352,7680.0
892.621,7942.0
893.89,8012.0
895.159,8295.0
896.427,8390.0
897.695,8595.0
898.964,8965.0
900.232,9108.0
901.499,9314.0
902.767,9609.0
904.034,9814.0
905.301,10186.0
906.568,10126.0
907.835,10341.0
909.102,10279.0
910.368,10302.0
911.634,10327.0
912.9,10316.0
914.166,10230.0
915.432,10148.0
916.697,9878.0
917.962,9694.0
919.227,9513.0
920.492,9398.0
921.757,9110.0
923.021,8934.0
924.285,8713.0
925.55,8618.0
926.813,8369.0
928.077,8303.0
929.341,8110.0
930.604,8003.0
931.867,8018.0
933.13,7940.0
934.393,7903.0
935.655,7898.0
936.918,7850.0
938.18,7946.0
939.442,7865.0
940.703,7942.0
941.965,8032.0
943.226,8082.0
944.488,8161.0
945.749,8282.0
947.009,8380.0
948.27,8480.0
949.53,8417.0
950.791,8712.0
952.051,8590.0
953.311,8726.0
954.57,8715.0
955.83,8780.0
957.089,8784.0
958.348,8568.0
959.607,8623.0
960.866,8540.0
962.124,8292.0
963.383,8165.0
964.641,8150.0
965.899,8051.0
967.156,7926.0
968.414,7808.0
969.671,7726.0
970.928,7639.0
972.185,7522.0
973.442,7523.0
974.699,7481.0
975.955,7490.0
977.211,7413.0
978.468,7348.0
979.723,7404.0
980.979,7282.0
982.234,7347.0
983.49,7350.0
984.745,7234.0
986.0,7388.0
987.254,7349.0
988.509,7227.0
989.763,7244.0
991.017,7261.0
992.271,7270.0
993.525,7291.0
994.779,7312.0
996.032,7406.0
997.285,7326.0
998.538,7440.0
999.791,7379.0
1001.044,7464.0
1002.296,7484.0
1003.548,7449.0
1004.8,7459.0
1006.052,7526.0
1007.304,7555.0
1008.555,7574.0
1009.807,7623.0
1011.058,7607.0
1012.309,7701.0
1013.559,7656.0
1014.81,7597.0
1016.06,7644.0
1017.31,7614.886
1018.56,7711.0
1019.81,7639.0
1021.06,7646.0
1022.309,7670.0
1023.558,7626.0
1024.807,7697.0
1026.056,7538.0
1027.305,7561.0
1028.553,7438.0
1029.801,7433.0
1031.049,7390.0
1032.297,7278.0
1033.545,7180.0
1034.793,7275.0
1036.04,7204.0
1037.287,7127.0
1038.534,7029.0
1039.781,7077.0
1041.027,7201.0
1042.274,7174.0
1043.52,7181.0
1044.766,7222.0
1046.012,7251.0
1047.257,7254.0
1048.503,7220.0
1049.748,7525.0
1050.993,7510.0
1052.238,7642.0
1053.483,7676.0
1054.727,7717.0
1055.971,7783.0
1057.216,7828.56
1058.459,7908.0
1059.703,7960.0
1060.947,8006.0
1062.19,8105.0
1063.433,8143.0
1064.676,8307.0
1065.919,8263.0
1067.162,8283.0
1068.404,8417.0
1069.646,8384.0
1070.888,8374.0
1072.13,8790.0
1073.372,8706.0
1074.613,8693.0
1075.855,8523.0
1077.096,8417.0
1078.337,8338.0
1079.578,8322.0
1080.818,8390.0
1082.059,8332.0
1083.299,8270.0
1084.539,8341.0
1085.779,8269.0
1087.018,8232.0
1088.258,8256.0
1089.497,8238.0
1090.736,8210.0
1091.975,8330.0
1093.213,8252.0
1094.452,8285.0
1095.69,8360.0
1096.928,8483.0
1098.166,8484.0
1099.404,8492.0
1100.642,8710.0
1101.879,8760.0
1103.116,8860.0
1104.353,8898.0
1105.59,9011.0
1106.827,9037.0
1108.063,9198.0
1109.299,9270.0
1110.536,9472.0
1111.771,9400.0
1113.007,9353.0
1114.243,9518.0
1115.478,9398.0
1116.713,9385.0
1117.948,9250.0
1119.183,9202.0
1120.418,9048.786
1121.652,9003.0
1122.886,8758.0
1124.12,8650.0
1125.354,8589.0
1126.588,8340.0
1127.821,8232.0
1129.055,8124.0
1130.288,7966.0
1131.521,7849.0
1132.753,7719.0
1133.986,7541.865
1135.218,7477.0
1136.45,7205.497
1137.682,7008.0
1138.914,6871.0
1140.146,6724.0
1141.377,6632.0
1142.609,6556.0
1143.84,6390.0
1145.071,6393.0
1146.301,6310.0
1147.532,6171.0
1148.762,6209.0
1149.992,6107.0
1151.222,6036.0
1152.452,6051.0
1153.682,6009.0
1154.911,6005.0
1156.14,5968.0
1157.369,6058.0
1158.598,5890.0
1159.827,5981.0
1161.055,5874.0
1162.284,5928.0
1163.512,5900.0
1164.74,5828.0
1165.967,5945.0
1167.195,5833.0
1168.422,5893.0
1169.65,5836.0
1170.877,5874.0
1172.103,5896.0
1173.33,5837.0
1174.557,5889.0
1175.783,5966.0
1177.009,5880.0
1178.235,5803.0
1179.461,5970.0
1180.686,5874.0
1181.912,5843.0
1183.137,5978.0
1184.362,5930.0
1185.587,5815.0
1186.811,5940.0
1188.036,5932.0
1189.26,5970.0
1190.484,5936.0
1191.708,5881.0
1192.932,5879.0
1194.155,5861.0
1195.378,5919.0
1196.602,5838.0
1197.825,5923.0
1199.047,5835.0
1200.27,5894.0
1201.492,5908.0
1202.715,5916.0
1203.937,5938.444
1205.159,5890.0
1206.38,5952.0
1207.602,5948.0
1208.823,5956.0
1210.044,6005.0
1211.265,5971.349
1212.486,5884.0
1213.707,5896.0
1214.927,5930.0
1216.147,5820.106
1217.367,5888.245
1218.587,5954.0
1219.807,5942.0
1221.027,5965.0
1222.246,5993.0
1223.465,5903.0
1224.684,5953.0
1225.903,5952.0
1227.121,6006.0
1228.34,5898.0
1229.558,5938.0
1230.776,5967.0
1231.994,6055.0
1233.212,5985.0
1234.429,5972.0
1235.646,5964.0
1236.864,5964.0
1238.081,6067.0
1239.297,5958.0
1240.514,6064.0
1241.73,5952.0
1242.947,5958.0
1244.163,6007.0
1245.378,6007.0
1246.594,6032.0
1247.81,6018.0
1249.025,6041.0
1250.24,6076.0
1251.455,6081.0
1252.67,6069.196
1253.885,6081.0
1255.099,6024.0
1256.313,6047.0
1257.527,6038.0
1258.741,6100.0
1259.955,6016.0
1261.168,5999.0
1262.382,6058.0
1263.595,6020.0
1264.808,6059.0
1266.021,6019.0
1267.233,6064.0
1268.446,6072.0
1269.658,6099.0
1270.87,6113.007
1272.082,6108.19
1273.294,6115.0
1274.505,6092.0
1275.716,6054.0
1276.928,6040.0
1278.139,6023.0
1279.349,6033.934
1280.56,6075.0
1281.77,6055.0
1282.981,6102.0
1284.191,6070.0
1285.401,6066.0
1286.61,6082.0
1287.82,6066.0
1289.029,6078.645
1290.239,6152.0
1291.448,6115.0
1292.656,6100.0
1293.865,6164.0
1295.073,6157.0
1296.282,6125.0
1297.49,6190.0
1298.698,6135.0
1299.906,6161.0
1301.113,6256.0
1302.32,6196.0
1303.528,6245.0
1304.735,6205.0
1305.942,6154.0
1307.148,6186.0
1308.355,6224.0
1309.561,6215.0
1310.767,6209.0
1311.973,6243.0
1313.179,6221.0
1314.384,6168.0
1315.59,6223.0
1316.795,6136.0
1318.0,6209.0
1319.205,6134.0
1320.41,6263.0
1321.614,6165.0
1322.819,6133.0
1324.023,6267.0
1325.227,6254.0
1326.431,6298.0
1327.634,6231.0
1328.838,6260.0
1330.041,6231.0
1331.244,6312.0
1332.447,6273.0
1333.65,6325.0
1334.852,6234.0
1336.055,6265.0
1337.257,6272.0
1338.459,6312.0
1339.661,6279.0
1340.862,6345.0
1342.064,6324.0
1343.265,6334.0
1344.466,6350.0
1345.667,6378.0
1346.868,6282.0
1348.068,6350.0
1349.269,6358.0
1350.469,6380.0
1351.669,6466.0
1352.869,6410.0
1354.069,6395.0
1355.268,6372.0
1356.468,6303.0
1357.667,6421.0
1358.866,6449.0
1360.065,6408.0
1361.263,6478.0
1362.462,6468.0
1363.66,6477.0
1364.858,6506.43
1366.056,6465.0
1367.254,6514.0
1368.451,6497.0
1369.649,6451.0
1370.846,6572.0
1372.043,6573.0
1373.24,6562.0
1374.436,6516.0
1375.633,6542.483
1376.829,6542.0
1378.025,6581.0
1379.221,6517.0
1380.417,6551.0
1381.613,6577.0
1382.808,6555.0
1384.003,6636.0
1385.199,6624.0
1386.393,6532.0
1387.588,6582.0
1388.783,6503.0
1389.977,6561.0
1391.171,6588.0
1392.365,6518.0
1393.559,6607.0
1394.753,6642.0
1395.946,6545.0
1397.14,6617.0
1398.333,6594.915
1399.526,6571.0
1400.719,6612.0
1401.911,6645.0
1403.104,6667.0
1404.296,6592.0
1405.488,6667.0
1406.68,6678.0
1407.872,6656.0
1409.063,6737.0
1410.255,6713.0
1411.446,6586.0
1412.637,6702.0
1413.828,6657.0
1415.018,6720.0
1416.209,6697.0
1417.399,6765.0
1418.589,6704.0
1419.779,6801.0
1420.969,6790.0
1422.159,6750.0
1423.348,6747.0
1424.537,6780.0
1425.726,6742.0
1426.915,6824.0
1428.104,6798.0
1429.293,6841.0
1430.481,6836.0
1431.669,6857.0
1432.857,6829.0
1434.045,7002.0
1435.233,6960.0
1436.42,7062.0
1437.608,6979.0
1438.795,6982.0
1439.982,7089.0
1441.169,7012.0
1442.355,7074.0
1443.542,7056.0
1444.728,7070.0
1445.914,6990.0
1447.1,7094.0
1448.286,7037.0
1449.472,7062.0
1450.657,6969.0
1451.842,7110.0
1453.027,7083.0
1454.212,7104.0
1455.397,6999.0
1456.581,7078.0
1457.766,7227.135
1458.95,7127.711
1460.134,7170.18
1461.318,7050.0
1462.501,7093.0
1463.685,7043.0
1464.868,7008.0
1466.051,7047.0
1467.234,7061.0
1468.417,6976.0
1469.6,6959.0
1470.782,7049.0
1471.965,7046.0
1473.147,7065.0
1474.329,7052.0
1475.51,7045.988
1476.692,7025.0
1477.873,7015.0
1479.055,7004.0
1480.236,6981.0
1481.416,7086.0
1482.597,6979.0
1483.778,7040.0
1484.958,7118.0
1486.138,7016.0
1487.318,6994.0
1488.498,7139.0
1489.678,7079.0
1490.857,6972.0
1492.037,7041.0
1493.216,7159.0
1494.395,7105.0
1495.574,7134.0
1496.752,7124.0
1497.931,7053.0
1499.109,7213.0
1500.287,7085.324
1501.465,7105.633
1502.643,7006.0
1503.82,7043.0
1504.998,7141.0
1506.175,7101.0
1507.352,7092.0
1508.529,7174.0
1509.706,7092.0
1510.882,7159.0
1512.059,7188.0
1513.235,7170.0
1514.411,7105.0
1515.587,7179.0
1516.762,7185.0
1517.938,7114.0
1519.113,7247.0
1520.288,7195.0
1521.463,7188.0
1522.638,7176.0
