Raman Shift,Intensity 
400,1.147388477
401,1.229665695
402,1.272845354
403,1.192229683
404,1.100532897
405,1.162893561
406,1.23643938
407,1.24518126
408,1.20004214
409,1.322336568
410,1.218232168
411,1.246379979
412,1.163737648
413,1.20512003
414,1.184542817
415,1.190172627
416,1.157111902
417,1.169903538
418,1.245856264
419,1.176478667
420,1.263526108
421,1.161947339
422,1.143075392
423,1.230218754
424,1.234386543
425,1.254663818
426,1.218667393
427,1.196019847
428,1.212428691
429,1.188293092
430,1.246986353
431,1.190490038
432,1.20625673
433,1.177719927
434,1.185259696
435,1.254209581
436,1.150257637
437,1.214700541
438,1.218292484
439,1.182614803
440,1.173093829
441,1.211252588
442,1.246076972
443,1.193955642
444,1.210958934
445,1.195593201
446,1.25428178
447,1.194814358
448,1.221861158
449,1.188063945
450,1.11672249
451,1.17982284
452,1.221365932
453,1.203352505
454,1.357968584
455,1.206398986
456,1.237726394
457,1.114747686
458,1.144635015
459,1.187320173
460,1.217112337
461,1.172599724
462,1.18002655
463,1.232301013
464,1.161603305
465,1.179414493
466,1.150247458
467,1.234601254
468,1.181871538
469,1.217173478
470,1.213654496
471,1.202455551
472,1.157252445
473,1.216817622
474,1.318344356
475,1.166311448
476,1.196459912
477,1.209838419
478,1.25859785
479,1.239315479
480,1.275023233
481,1.160225927
482,1.229573731
483,1.188855637
484,1.170437743
485,1.249790342
486,1.123555973
487,1.187383027
488,1.195493891
489,1.20309444
490,1.211801095
491,1.238953653
492,1.190132751
493,1.270658276
494,1.196819715
495,1.173409312
496,1.234438971
497,1.220036446
498,1.243501228
499,1.23811775
500,1.184817933
501,1.171396108
502,1.229527361
503,1.163995142
504,1.21274731
505,1.201427996
506,1.25710736
507,1.214399203
508,1.199038941
509,1.205447145
510,1.220908639
511,1.168248789
512,1.213474066
513,1.19404462
514,1.194315231
515,1.290286492
516,1.243860253
517,1.190703269
518,1.195176125
519,1.205556151
520,1.113717046
521,1.200983622
522,1.237158664
523,1.160176874
524,1.195423372
525,1.151713743
526,1.218782411
527,1.208417288
528,1.176995424
529,1.149406867
530,1.249609882
531,1.200112093
532,1.163873354
533,1.255781081
534,1.233427474
535,1.187215728
536,1.156142727
537,1.152844001
538,1.167887147
539,1.230011184
540,1.228762262
541,1.178834699
542,1.204301604
543,1.173475531
544,1.201875532
545,1.242814115
546,1.12553597
547,1.184899279
548,1.184016733
549,1.17781942
550,1.229352844
551,1.214249578
552,1.194050978
553,1.252703402
554,1.155313437
555,1.256583819
556,1.191739466
557,1.155181455
558,1.212954901
559,1.158050495
560,1.234864219
561,1.200683651
562,1.146395326
563,1.167553572
564,1.22540902
565,1.145474969
566,1.134326479
567,1.144753856
568,1.197995358
569,1.251757662
570,1.16777513
571,1.233239697
572,1.209885471
573,1.243265726
574,1.193767636
575,1.254765241
576,1.210638313
577,1.218933319
578,1.170064276
579,1.161020194
580,1.180498104
581,1.173610503
582,1.119349711
583,1.124301047
584,1.256987324
585,1.178354187
586,1.234442339
587,1.170781169
588,1.128188219
589,1.202289685
590,1.31493415
591,1.24708391
592,1.172726894
593,1.175365203
594,1.186148936
595,1.208410836
596,1.171812231
597,1.180244906
598,1.176119409
599,1.097156386
600,1.177822799
601,1.215404224
602,1.236463961
603,1.19917633
604,1.233900175
605,1.232376445
606,1.136606328
607,1.20341803
608,1.213682614
609,1.209272803
610,1.19895184
611,1.154866172
612,1.231797459
613,1.131504335
614,1.149446141
615,1.184077148
616,1.217529778
617,1.136056871
618,1.126505337
619,1.202068774
620,1.212827946
621,1.194761984
622,1.189140849
623,1.201769121
624,1.189474832
625,1.169657228
626,1.174577016
627,1.183754786
628,1.166850264
629,1.228918568
630,1.188863656
631,1.257897244
632,1.170757859
633,1.212495316
634,1.229587355
635,1.273309892
636,1.162355484
637,1.18570055
638,1.191449412
639,1.25189839
640,1.171999545
641,1.260278703
642,1.126570232
643,1.203917809
644,1.200705698
645,1.158557809
646,1.215573035
647,1.148708291
648,1.184381833
649,1.308227427
650,1.259578582
651,1.23057228
652,1.237182501
653,1.154504445
654,1.17123507
655,1.254600816
656,1.241642184
657,1.22117375
658,1.193467288
659,1.138327402
660,1.151854195
661,1.23871285
662,1.219717569
663,1.157960663
664,1.215411066
665,1.220281868
666,1.145621288
667,1.158613595
668,1.194604922
669,1.140708262
670,1.199012142
671,1.184661194
672,1.219703361
673,1.134404951
674,1.261800627
675,1.169593231
676,1.219419267
677,1.272120799
678,1.28347916
679,1.235608572
680,1.213685701
681,1.2140221
682,1.214058518
683,1.181865554
684,1.210699629
685,1.25982645
686,1.172273119
687,1.157090172
688,1.219114677
689,1.165140303
690,1.137352239
691,1.146588264
692,1.201037612
693,1.281552284
694,1.121927259
695,1.234570966
696,1.204617068
697,1.296840695
698,1.191527147
699,1.129622687
700,1.182893288
701,1.219320344
702,1.2255043
703,1.193904955
704,1.0859514
705,1.250768467
706,1.082010213
707,1.178006145
708,1.220918903
709,1.163088021
710,1.113755998
711,1.20949723
712,1.229212774
713,1.190098484
714,1.133829713
715,1.183309964
716,1.172858261
717,1.233209807
718,1.194442767
719,1.236933548
720,1.184411975
721,1.244271201
722,1.212755519
723,1.176196704
724,1.18484239
725,1.225447238
726,1.208493692
727,1.202801868
728,1.188257648
729,1.164698582
730,1.234100378
731,1.191769317
732,1.182772699
733,1.198957193
734,1.173170478
735,1.208179778
736,1.14808332
737,1.20264644
738,1.197552099
739,1.175070772
740,1.159732845
741,1.179515935
742,1.258525059
743,1.228907182
744,1.12327488
745,1.29029198
746,1.229875222
747,1.188869588
748,1.184560006
749,1.199873959
750,1.217424937
751,1.216932118
752,1.1702516
753,1.164071291
754,1.190099329
755,1.171221556
756,1.138814062
757,1.19553568
758,1.1975914
759,1.181936901
760,1.158218291
761,1.244557052
762,1.156131154
763,1.235617252
764,1.19361818
765,1.152687982
766,1.228769107
767,1.262124163
768,1.130004776
769,1.18333339
770,1.225891888
771,1.171529788
772,1.19407078
773,1.219591044
774,1.191254032
775,1.220695008
776,1.105965873
777,1.182601604
778,1.22126696
779,1.206364385
780,1.214496388
781,1.260964381
782,1.27944398
783,1.210621069
784,1.190796866
785,1.189947995
786,1.176567162
787,1.193312682
788,1.139786205
789,1.137039483
790,1.181272334
791,1.174999551
792,1.236695631
793,1.229836889
794,1.159815271
795,1.248283271
796,1.134027416
797,1.19251606
798,1.189432129
799,1.166172689
800,1.175479847
801,1.231303896
802,1.195193657
803,1.210919169
804,1.206452388
805,1.19609847
806,1.21864939
807,1.183136048
808,1.133797989
809,1.205493307
810,1.233290737
811,1.151332095
812,1.21635883
813,1.254910785
814,1.137194045
815,1.208748899
816,1.171799105
817,1.190691553
818,1.266352792
819,1.23832611
820,1.19666461
821,1.248453298
822,1.188773023
823,1.113567076
824,1.262513387
825,1.285148507
826,1.202611952
827,1.222661534
828,1.184939329
829,1.156336326
830,1.226991003
831,1.149039565
832,1.208225443
833,1.198705854
834,1.190516332
835,1.190487926
836,1.163320445
837,1.20761889
838,1.155611911
839,1.178549584
840,1.154068866
841,1.211065484
842,1.227989252
843,1.195933903
844,1.234026229
845,1.158193112
846,1.233074416
847,1.19224388
848,1.158920903
849,1.219782524
850,1.214700287
851,1.146035487
852,1.257893543
853,1.183587405
854,1.171302724
855,1.188297577
856,1.189766358
857,1.130772342
858,1.166094059
859,1.20746533
860,1.156805836
861,1.210903612
862,1.187007274
863,1.26888079
864,1.221883779
865,1.175531025
866,1.193988402
867,1.185540623
868,1.225046641
869,1.197460833
870,1.148082336
871,1.244090253
872,1.153824326
873,1.224248221
874,1.206058331
875,1.222075985
876,1.164611847
877,1.247987448
878,1.20777037
879,1.204265793
880,1.233826367
881,1.190019423
882,1.212170564
883,1.200362876
884,1.185061606
885,1.224650994
886,1.222538647
887,1.176838293
888,1.153574243
889,1.242067837
890,1.206251338
891,1.180881847
892,1.244290437
893,1.164830968
894,1.167245088
895,1.23104621
896,1.19840541
897,1.161579967
898,1.251288521
899,1.171029742
900,1.144642318
901,1.169559589
902,1.253043921
903,1.196514486
904,1.201681485
905,1.258823936
906,1.216362114
907,1.201184948
908,1.138626756
909,1.233119883
910,1.165906021
911,1.193494489
912,1.195749577
913,1.184099804
914,1.168794849
915,1.192513193
916,1.200284317
917,1.149887438
918,1.133663498
919,1.232227003
920,1.197161836
921,1.163765147
922,1.168636724
923,1.242268671
924,1.18967326
925,1.215263202
926,1.24867428
927,1.172383799
928,1.202753944
929,1.235081698
930,1.207430444
931,1.212012408
932,1.258893752
933,1.195768127
934,1.231175468
935,1.234822079
936,1.220620296
937,1.236502665
938,1.044989502
939,1.192872633
940,1.21251331
941,1.257761913
942,1.13879393
943,1.239661662
944,1.215786717
945,1.177103862
946,1.155081483
947,1.123794034
948,1.19834321
949,1.189932524
950,1.1925446
951,1.232117347
952,1.195133546
953,1.175633528
954,1.221807428
955,1.120806392
956,1.235742334
957,1.17947259
958,1.215803218
959,1.241166419
960,1.157804133
961,1.219282879
962,1.200843225
963,1.2398352
964,1.129913579
965,1.188187521
966,1.209017959
967,1.224175804
968,1.317476123
969,1.193192059
970,1.259287031
971,1.143896497
972,1.182660155
973,1.222582947
974,1.193959493
975,1.242457834
976,1.201921458
977,1.190430345
978,1.172317272
979,1.165906577
980,1.183441473
981,1.229958404
982,1.213883207
983,1.233954425
984,1.22383071
985,1.237906232
986,1.19628322
987,1.242670399
988,1.242046563
989,1.110874587
990,1.202806782
991,1.167988752
992,1.208591107
993,1.174824792
994,1.226546834
995,1.183853468
996,1.271267916
997,1.257639479
998,1.156991709
999,1.301617915
1000,1.150868837
1001,1.206051456
1002,1.263570396
1003,1.226421314
1004,1.204697216
1005,1.240722274
1006,1.26824099
1007,1.253745897
1008,1.156711424
1009,1.201174493
1010,1.216448362
1011,1.233499771
1012,1.155831994
1013,1.133644941
1014,1.122963942
1015,1.164733478
1016,1.181689598
1017,1.169138872
1018,1.198232676
1019,1.211897433
1020,1.161050283
1021,1.264964744
1022,1.258312308
1023,1.208370538
1024,1.16908681
1025,1.169248279
1026,1.199503456
1027,1.188715282
1028,1.181306221
1029,1.193228798
1030,1.232465605
1031,1.240598147
1032,1.284569828
1033,1.173948529
1034,1.162498094
1035,1.224429117
1036,1.224267807
1037,1.145606929
1038,1.162295718
1039,1.192288337
1040,1.196412532
1041,1.214674462
1042,1.175989638
1043,1.280837734
1044,1.132735601
1045,1.236734351
1046,1.186621114
1047,1.186649493
1048,1.234952543
1049,1.211325863
1050,1.206458182
1051,1.146108104
1052,1.237336788
1053,1.237699782
1054,1.23194739
1055,1.140380481
1056,1.164493505
1057,1.167207314
1058,1.221773938
1059,1.219723753
1060,1.139794486
1061,1.164201007
1062,1.161983726
1063,1.17257735
1064,1.145605973
1065,1.230237974
1066,1.235294196
1067,1.192688058
1068,1.203375215
1069,1.149756981
1070,1.147302721
1071,1.167172169
1072,1.197146396
1073,1.197701713
1074,1.218926669
1075,1.221594692
1076,1.17751909
1077,1.201997431
1078,1.198549289
1079,1.201841004
1080,1.240461946
1081,1.184910347
1082,1.174204479
1083,1.151533294
1084,1.113704684
1085,1.212994351
1086,1.217566392
1087,1.164366924
1088,1.209587232
1089,1.239216216
1090,1.206684618
1091,1.207374329
1092,1.199695139
1093,1.269484241
1094,1.242413102
1095,1.201997092
1096,1.26123459
1097,1.227216254
1098,1.157105891
1099,1.156461362
1100,1.238856478
1101,1.214369833
1102,1.233430322
1103,1.200635761
1104,1.190711818
1105,1.270794738
1106,1.155122438
1107,1.176978992
1108,1.152849846
1109,1.085631601
1110,1.235277833
1111,1.156230884
1112,1.24135622
1113,1.098902663
1114,1.22907844
1115,1.188331609
1116,1.169307535
1117,1.227750597
1118,1.196750563
1119,1.225056909
1120,1.232118481
1121,1.252176688
1122,1.198029233
1123,1.115915235
1124,1.191147065
1125,1.160034567
1126,1.206911016
1127,1.138324445
1128,1.247605368
1129,1.189663619
1130,1.204366945
1131,1.236234435
1132,1.212000384
1133,1.196337341
1134,1.23284944
1135,1.180340187
1136,1.210931568
1137,1.200321112
1138,1.186305973
1139,1.237376203
1140,1.225886537
1141,1.22463414
1142,1.20328262
1143,1.163540541
1144,1.176552128
1145,1.140092805
1146,1.156178833
1147,1.11712274
1148,1.199317494
1149,1.135071021
1150,1.198240362
1151,1.20368927
1152,1.155679402
1153,1.176912855
1154,1.224011207
1155,1.225517083
1156,1.182414981
1157,1.191999889
1158,1.156941786
1159,1.178321816
1160,1.251787145
1161,1.230110544
1162,1.194447396
1163,1.179905342
1164,1.193742741
1165,1.173978925
1166,1.155573021
1167,1.13672487
1168,1.178045529
1169,1.294844273
1170,1.140463436
1171,1.206085959
1172,1.218712292
1173,1.18817838
1174,1.230478644
1175,1.199748608
1176,1.21979202
1177,1.137592264
1178,1.19945235
1179,1.203852659
1180,1.197132983
1181,1.213651506
1182,1.206593656
1183,1.211842817
1184,1.206572937
1185,1.177372717
1186,1.107493417
1187,1.173322057
1188,1.254893635
1189,1.217193747
1190,1.129532447
1191,1.144094478
1192,1.219524108
1193,1.154573078
1194,1.15228389
1195,1.244304025
1196,1.217667944
1197,1.190209076
1198,1.112230516
1199,1.141059045
1200,1.181578275
1201,1.232529444
1202,1.159175139
1203,1.122707557
1204,1.173965265
1205,1.148377399
1206,1.188633066
1207,1.169026939
1208,1.167203888
1209,1.217554091
1210,1.189182809
1211,1.252485624
1212,1.203408138
1213,1.1513608
1214,1.227984661
1215,1.223309259
1216,1.190769771
1217,1.242913068
1218,1.163693568
1219,1.173761656
1220,1.158058769
1221,1.212893582
1222,1.234263768
1223,1.231693267
1224,1.212867007
1225,1.10250467
1226,1.208635957
1227,1.170089626
1228,1.185996343
1229,1.216236293
1230,1.225863408
1231,1.187281014
1232,1.19862618
1233,1.222159862
1234,1.22965789
1235,1.227542833
1236,1.178747164
1237,1.260642407
1238,1.177577019
1239,1.194656168
1240,1.171470925
1241,1.222621002
1242,1.196180428
1243,1.187846248
1244,1.168440197
1245,1.199799505
1246,1.123057947
1247,1.18878059
1248,1.161378664
1249,1.206880872
1250,1.136376199
1251,1.18846033
1252,1.220003234
1253,1.125632942
1254,1.200683688
1255,1.204448759
1256,1.250958424
1257,1.17867717
1258,1.214644869
1259,1.194131521
1260,1.136575403
1261,1.219526072
1262,1.221219745
1263,1.120819815
1264,1.193259657
1265,1.224944144
1266,1.210194931
1267,1.237428511
1268,1.16666271
1269,1.220489293
1270,1.192753172
1271,1.234473869
1272,1.210743598
1273,1.2053998
1274,1.211613651
1275,1.246159379
1276,1.177799339
1277,1.166825116
1278,1.240634624
1279,1.181551597
1280,1.304782523
1281,1.119463497
1282,1.206536871
1283,1.198157022
1284,1.159967482
1285,1.259932967
1286,1.189334691
1287,1.195932186
1288,1.19556754
1289,1.209500575
1290,1.277357404
1291,1.153540388
1292,1.159378946
1293,1.250060339
1294,1.166667635
1295,1.217400796
1296,1.2019949
1297,1.175810357
1298,1.22749245
1299,1.170354631
1300,1.179532772
1301,1.205073225
1302,1.191768814
1303,1.100750193
1304,1.161639748
1305,1.232886388
1306,1.212545109
1307,1.198356081
1308,1.163572228
1309,1.1986976
1310,1.163194727
1311,1.178156038
1312,1.269651385
1313,1.238562318
1314,1.17999551
1315,1.167672078
1316,1.188334659
1317,1.160252594
1318,1.22543183
1319,1.181175408
1320,1.213403287
1321,1.177753172
1322,1.22219842
1323,1.198524281
1324,1.215428483
1325,1.165879814
1326,1.122147431
1327,1.165249767
1328,1.152162028
1329,1.223226691
1330,1.221158631
1331,1.247072536
1332,1.220440318
1333,1.225080181
1334,1.169407177
1335,1.247960321
1336,1.142551245
1337,1.242989375
1338,1.220560111
1339,1.230545177
1340,1.198378734
1341,1.286794438
1342,1.232871709
1343,1.156971168
1344,1.279014496
1345,1.236903043
1346,1.133030417
1347,1.251587748
1348,1.245133666
1349,1.313768437
1350,1.279865266
1351,1.294024487
1352,1.213596833
1353,1.271605703
1354,1.189491766
1355,1.20956768
1356,1.218381677
1357,1.216143092
1358,1.218903973
1359,1.195338711
1360,1.147383423
1361,1.181677413
1362,1.222324476
1363,1.190068234
1364,1.21954222
1365,1.221786347
1366,1.184704677
1367,1.214589581
1368,1.18615319
1369,1.260434247
1370,1.193012282
1371,1.162504646
1372,1.250569009
1373,1.251666578
1374,1.190491112
1375,1.14602154
1376,1.257585971
1377,1.213602526
1378,1.251754968
1379,1.22395527
1380,1.175482315
1381,1.178106193
1382,1.218196191
1383,1.154532642
1384,1.228415701
1385,1.232859583
1386,1.297534915
1387,1.185237233
1388,1.173138293
1389,1.185824128
1390,1.176091092
1391,1.214842142
1392,1.196183816
1393,1.250766139
1394,1.21318991
1395,1.162445928
1396,1.163918417
1397,1.152467495
1398,1.18251626
1399,1.205406505
1400,1.240535716
1401,1.211601426
1402,1.205491773
1403,1.141863918
1404,1.248801632
1405,1.222753454
1406,1.206408642
1407,1.292470451
1408,1.212562278
1409,1.185942352
1410,1.212164606
1411,1.225760009
1412,1.217107592
1413,1.198014219
1414,1.207877101
1415,1.210814671
1416,1.23581861
1417,1.23876627
1418,1.178387568
1419,1.213500658
1420,1.259480139
1421,1.183977981
1422,1.174655895
1423,1.231013097
1424,1.224002975
1425,1.236310904
1426,1.297285765
1427,1.19549548
1428,1.207173726
1429,1.200920948
1430,1.221332373
1431,1.163555757
1432,1.219908553
1433,1.264775526
1434,1.222419358
1435,1.269638166
1436,1.209815172
1437,1.224312834
1438,1.217377591
1439,1.177495017
1440,1.197213861
1441,1.296047753
1442,1.251652055
1443,1.285091244
1444,1.202790836
1445,1.226092818
1446,1.284998848
1447,1.198127172
1448,1.148021016
1449,1.255938348
1450,1.249095733
1451,1.240034821
1452,1.236658302
1453,1.241046179
1454,1.252006137
1455,1.217654341
1456,1.265632702
1457,1.265625257
1458,1.243534487
1459,1.247483862
1460,1.234028747
1461,1.19699316
1462,1.283999607
1463,1.290061494
1464,1.183672013
1465,1.26117789
1466,1.27102818
1467,1.207403067
1468,1.1947272
1469,1.293135439
1470,1.255607969
1471,1.270285282
1472,1.241144595
1473,1.298859881
1474,1.27970629
1475,1.207766579
1476,1.306410644
1477,1.239931874
1478,1.224504447
1479,1.212268418
1480,1.28880542
1481,1.283079391
1482,1.238225385
1483,1.242740653
1484,1.241672313
1485,1.289525032
1486,1.213365179
1487,1.257843464
1488,1.269282659
1489,1.269088007
1490,1.265144653
1491,1.32318467
1492,1.287356328
1493,1.350971545
1494,1.23582958
1495,1.259031948
1496,1.32238071
1497,1.244300368
1498,1.316279377
1499,1.275411482
1500,1.291750474
1501,1.268936149
1502,1.248927059
1503,1.333279622
1504,1.224290539
1505,1.273352129
1506,1.254701627
1507,1.300653188
1508,1.235758723
1509,1.246150287
1510,1.412702528
1511,1.248245373
1512,1.26778301
1513,1.254247907
1514,1.279543296
1515,1.304835794
1516,1.291051874
1517,1.340116619
1518,1.301572349
1519,1.275671632
1520,1.322691337
1521,1.250526115
1522,1.292960312
1523,1.30638641
1524,1.327180688
1525,1.251745611
1526,1.291943306
1527,1.251746138
1528,1.278478307
1529,1.321668746
1530,1.345041193
1531,1.305843683
1532,1.370913053
1533,1.362427893
1534,1.2749475
1535,1.203751679
1536,1.33719723
1537,1.281629136
1538,1.281168725
1539,1.334925377
1540,1.448777016
1541,1.365508001
1542,1.374446099
1543,1.352567695
1544,1.345256843
1545,1.319696178
1546,1.32816022
1547,1.372904668
1548,1.306583122
1549,1.306679295
1550,1.30425329
1551,1.379521211
1552,1.268055026
1553,1.3676341
1554,1.396883
1555,1.307277385
1556,1.336310452
1557,1.330566228
1558,1.314409198
1559,1.353006468
1560,1.3621047
1561,1.343195786
1562,1.408263701
1563,1.345008201
1564,1.354946849
1565,1.315212597
1566,1.353461192
1567,1.34728001
1568,1.299120717
1569,1.296249087
1570,1.380017085
1571,1.299634579
1572,1.333556721
1573,1.33881483
1574,1.323175748
1575,1.338901497
1576,1.345394282
1577,1.382078196
1578,1.31553067
1579,1.340554738
1580,1.390269484
1581,1.340405277
1582,1.304895654
1583,1.422433554
1584,1.283840275
1585,1.326477476
1586,1.328444697
1587,1.328993836
1588,1.382354999
1589,1.362438623
1590,1.319376631
1591,1.367520859
1592,1.398620942
1593,1.284537766
1594,1.402123166
1595,1.295570793
1596,1.309012526
1597,1.380241919
1598,1.369491434
1599,1.328783378
1600,1.324624016
1601,1.340072592
1602,1.365815821
1603,1.329377315
1604,1.380345327
1605,1.38404613
1606,1.315893856
1607,1.369524958
1608,1.340384226
1609,1.421767374
1610,1.378671986
1611,1.354914485
1612,1.32304463
1613,1.314679715
1614,1.341945646
1615,1.349975212
1616,1.335301874
1617,1.362636079
1618,1.358546148
1619,1.336111878
1620,1.33778159
1621,1.336663066
1622,1.327800789
1623,1.343816436
1624,1.388361645
1625,1.347232364
1626,1.410923552
1627,1.288284828
1628,1.313341018
1629,1.424682891
1630,1.348655614
1631,1.399563808
1632,1.31918766
1633,1.29315722
1634,1.33628223
1635,1.322352252
1636,1.401943911
1637,1.314240324
1638,1.391038322
1639,1.34149191
1640,1.371237975
1641,1.343446933
1642,1.28465377
1643,1.278405755
1644,1.393746644
1645,1.287811065
1646,1.330661779
1647,1.332115967
1648,1.317575896
1649,1.284546
1650,1.336003509
1651,1.319468468
1652,1.319667524
1653,1.306763326
1654,1.380425708
1655,1.345359669
1656,1.345294467
1657,1.297410778
1658,1.291162375
1659,1.248354376
1660,1.308592073
1661,1.302154505
1662,1.302809735
1663,1.278376705
1664,1.269596975
1665,1.255028782
1666,1.303882467
1667,1.32345589
1668,1.310574975
1669,1.197934755
1670,1.317196225
1671,1.320341596
1672,1.225083097
1673,1.319260923
1674,1.258170286
1675,1.225860974
1676,1.296793843
1677,1.256111576
1678,1.234882485
1679,1.23447215
1680,1.243453086
1681,1.240880025
1682,1.241323227
1683,1.298512979
1684,1.213652899
1685,1.297530433
1686,1.22725779
1687,1.265207515
1688,1.275034635
1689,1.224453395
1690,1.244172919
1691,1.295650914
1692,1.233332633
1693,1.283440197
1694,1.240494326
1695,1.309473294
1696,1.312877601
1697,1.296478829
1698,1.232326631
1699,1.281279032
1700,1.282981011
1701,1.277578936
1702,1.257678876
1703,1.278952018
1704,1.181736618
1705,1.276168647
1706,1.2605024
1707,1.232182029
1708,1.266139844
1709,1.271951796
1710,1.221838929
1711,1.246018617
1712,1.316761182
1713,1.249979355
1714,1.211840127
1715,1.229278028
1716,1.195708114
1717,1.278895588
1718,1.310602859
1719,1.209541777
1720,1.225917779
1721,1.248253606
1722,1.236314461
1723,1.311922359
1724,1.204817056
1725,1.186551865
1726,1.211023959
1727,1.200617102
1728,1.277080314
1729,1.280362298
1730,1.206120504
1731,1.212790785
1732,1.307966655
1733,1.222457503
1734,1.230011373
1735,1.144566724
1736,1.251895313
1737,1.236895625
1738,1.261294448
1739,1.230731833
1740,1.244059624
1741,1.223922893
1742,1.214962649
1743,1.245738486
1744,1.225372798
1745,1.213623834
1746,1.22906154
1747,1.237426046
1748,1.184794802
1749,1.29278116
1750,1.214191252
1751,1.193535146
1752,1.179447075
1753,1.246874814
1754,1.30647595
1755,1.244275405
1756,1.2333873
1757,1.243032918
1758,1.187649761
1759,1.254581845
1760,1.255315503
1761,1.220059418
1762,1.228622016
1763,1.249007207
1764,1.158305826
1765,1.270582525
1766,1.171828896
1767,1.238784915
1768,1.207720285
1769,1.221619002
1770,1.25264836
1771,1.199407556
1772,1.243678198
1773,1.191993661
1774,1.128225379
1775,1.189129282
1776,1.172040403
1777,1.254830393
1778,1.221625701
1779,1.226452173
1780,1.208048699
1781,1.215302313
1782,1.209041186
1783,1.239001892
1784,1.209506837
1785,1.177207247
1786,1.198780408
1787,1.249619348
1788,1.217141461
1789,1.171074905
1790,1.242550876
1791,1.219050405
1792,1.170920168
1793,1.155824247
1794,1.263948153
1795,1.220402986
1796,1.208551056
1797,1.205068018
1798,1.200970343
1799,1.234215851
1800,1.247381437
1801,1.208860326
1802,1.26451699
1803,1.13956047
1804,1.154991098
1805,1.214795776
1806,1.201045744
1807,1.185879539
1808,1.203252032
1809,1.293058997
1810,1.234712709
1811,1.144484528
1812,1.197359657
1813,1.193054946
1814,1.237907722
1815,1.26816991
1816,1.236608439
1817,1.222529822
1818,1.204154444
1819,1.250475631
1820,1.220331667
1821,1.304302077
1822,1.113362497
1823,1.192831494
1824,1.281031469
1825,1.181363816
1826,1.19680311
1827,1.153645819
1828,1.195321032
1829,1.231089816
1830,1.2216532
1831,1.180098862
1832,1.211100707
1833,1.132174034
1834,1.242173972
1835,1.19263599
1836,1.19005997
1837,1.224620953
1838,1.20019143
1839,1.17409458
1840,1.121853154
1841,1.202440175
1842,1.241603815
1843,1.254404183
1844,1.260050739
1845,1.202149814
1846,1.265314672
1847,1.226728328
1848,1.170055397
1849,1.19792258
1850,1.168560328
1851,1.224583965
1852,1.219520481
1853,1.245654342
1854,1.177240039
1855,1.192299017
1856,1.285336712
1857,1.236984318
1858,1.199813262
1859,1.216621009
1860,1.176493801
1861,1.256148933
1862,1.170878351
1863,1.203299964
1864,1.227266281
1865,1.180797244
1866,1.200319626
1867,1.132650719
1868,1.124722281
1869,1.259103415
1870,1.095645183
1871,1.20339856
1872,1.211022064
1873,1.269954996
1874,1.173228631
1875,1.20959585
1876,1.227010414
1877,1.289522135
1878,1.217539971
1879,1.225131523
1880,1.249722396
1881,1.17169132
1882,1.225248309
1883,1.206017564
1884,1.151796151
1885,1.268247652
1886,1.220120596
1887,1.189343441
1888,1.187736908
1889,1.253321913
1890,1.211356667
1891,1.155773065
1892,1.210702339
1893,1.150615951
1894,1.233576507
1895,1.181988139
1896,1.176626771
1897,1.167757726
1898,1.214742299
1899,1.224950059
1900,1.180238066
1901,1.244564952
1902,1.152384331
1903,1.21940656
1904,1.176913608
1905,1.164169821
1906,1.290164133
1907,1.20773699
1908,1.231326339
1909,1.177247775
1910,1.204977027
1911,1.218674782
1912,1.2422694
1913,1.241965005
1914,1.161011555
1915,1.235075896
1916,1.200509223
1917,1.134265211
1918,1.190567856
1919,1.190612751
1920,1.21489651
1921,1.196804254
1922,1.198395297
1923,1.182505769
1924,1.160322742
1925,1.240138143
1926,1.203158529
1927,1.146883829
1928,1.169491965
1929,1.229511226
1930,1.210497268
1931,1.22753716
1932,1.271951495
1933,1.197763419
1934,1.252510617
1935,1.160521266
1936,1.185258626
1937,1.192263985
1938,1.18534445
1939,1.159918424
1940,1.142210984
1941,1.210326555
1942,1.163127614
1943,1.239991838
1944,1.250177027
1945,1.146040041
1946,1.230496006
1947,1.160685177
1948,1.223765031
1949,1.178636439
1950,1.288818417
1951,1.226682903
1952,1.141979397
1953,1.209983533
1954,1.18146352
1955,1.137934587
1956,1.19611975
1957,1.260622413
1958,1.159055933
1959,1.237945441
1960,1.207906743
1961,1.230765609
1962,1.222520661
1963,1.198858901
1964,1.204014501
1965,1.220662206
1966,1.176894618
1967,1.225519226
1968,1.193893311
1969,1.207970826
1970,1.193770517
1971,1.24696822
1972,1.17302668
1973,1.24309029
1974,1.131335814
1975,1.215318724
1976,1.183842552
1977,1.176192894
1978,1.221473937
1979,1.206534771
1980,1.201472928
1981,1.184797683
1982,1.270318837
1983,1.160870164
1984,1.173553446
1985,1.255429239
1986,1.210498401
1987,1.211816938
1988,1.123480445
1989,1.193732925
1990,1.230616449
1991,1.238021352
1992,1.166221462
1993,1.174874306
1994,1.174859765
1995,1.275164232
1996,1.179115094
1997,1.232461428
1998,1.180536026
1999,1.222014562
2000,1.221515961
2001,1.267522921
2002,1.196403444
2003,1.181534376
2004,1.248388841
2005,1.242733317
2006,1.211642916
2007,1.19910866
2008,1.175390241
2009,1.243008629
2010,1.145800401
2011,1.15408766
2012,1.211162065
2013,1.154224217
2014,1.188880962
2015,1.219002504
2016,1.171914619
2017,1.183855888
2018,1.26204258
2019,1.143057625
2020,1.288421764
2021,1.172313872
2022,1.253483618
2023,1.211226416
2024,1.185278773
2025,1.165084246
2026,1.232396512
2027,1.191305951
2028,1.173566341
2029,1.204325132
2030,1.209054175
2031,1.191350761
2032,1.235817479
2033,1.23364986
2034,1.250312654
2035,1.200747354
2036,1.171522742
2037,1.159266896
2038,1.195772906
2039,1.281816465
2040,1.190084004
2041,1.15504446
2042,1.226619872
2043,1.211566438
2044,1.163405844
2045,1.173505992
2046,1.130716593
2047,1.180425284
2048,1.177668289
2049,1.150405403
2050,1.23406218
2051,1.199879602
2052,1.20461207
2053,1.132286744
2054,1.226710494
2055,1.193266326
2056,1.185950689
2057,1.216326765
2058,1.268602755
2059,1.180652481
2060,1.143343702
2061,1.208220338
2062,1.142476464
2063,1.199838553
2064,1.21173311
2065,1.193885949
2066,1.227144366
2067,1.222238273
2068,1.184146335
2069,1.197048471
2070,1.231585025
2071,1.086765519
2072,1.214284755
2073,1.196007291
2074,1.234543047
2075,1.293255667
2076,1.199698049
2077,1.254747365
2078,1.183378703
2079,1.188525076
2080,1.1542308
2081,1.204190293
2082,1.205997852
2083,1.195422988
2084,1.205165117
2085,1.206059779
2086,1.229258245
2087,1.161972297
2088,1.199555777
2089,1.211626466
2090,1.173028208
2091,1.165695612
2092,1.171666739
2093,1.230103986
2094,1.191096487
2095,1.142552266
2096,1.165544684
2097,1.196535898
2098,1.155275305
2099,1.197243222
2100,1.278586399
2101,1.195976466
2102,1.107918381
2103,1.172403525
2104,1.255692516
2105,1.157237758
2106,1.201236223
2107,1.220846695
2108,1.18508622
2109,1.258424307
2110,1.181966569
2111,1.1310191
2112,1.175836849
2113,1.18755981
2114,1.171539807
2115,1.222265169
2116,1.158251756
2117,1.227326879
2118,1.190157564
2119,1.215608095
2120,1.116515752
2121,1.224826809
2122,1.15333502
2123,1.179090627
2124,1.155731124
2125,1.197513557
2126,1.196576209
2127,1.148308667
2128,1.207290116
2129,1.227066457
2130,1.230015957
2131,1.203542664
2132,1.151110382
2133,1.20709407
2134,1.228633804
2135,1.189479321
2136,1.203769858
2137,1.183556997
2138,1.217690765
2139,1.213189989
2140,1.303926009
2141,1.197084198
2142,1.285610808
2143,1.150601291
2144,1.199888649
2145,1.21872164
2146,1.151814762
2147,1.167986808
2148,1.220918944
2149,1.175012312
2150,1.227910494
2151,1.097235824
2152,1.210239048
2153,1.260096833
2154,1.20172989
2155,1.2308022
2156,1.204938945
2157,1.173859238
2158,1.225846028
2159,1.144805074
2160,1.189582293
2161,1.17100428
2162,1.18380676
2163,1.152188169
2164,1.206141674
2165,1.197335969
2166,1.17720479
2167,1.148365467
2168,1.293619647
2169,1.14701636
2170,1.22498063
2171,1.20197794
2172,1.24532148
2173,1.1796815
2174,1.140440039
2175,1.18010711
2176,1.207291964
2177,1.19595646
2178,1.237486911
2179,1.24000404
2180,1.172042959
2181,1.264610872
2182,1.250760451
2183,1.184920108
2184,1.147390459
2185,1.205192212
2186,1.199834687
2187,1.22320856
2188,1.170140769
2189,1.222194273
2190,1.115946266
2191,1.250868119
2192,1.27688241
2193,1.256486436
2194,1.21965025
2195,1.20495604
2196,1.264909455
2197,1.214932342
2198,1.175261998
2199,1.192904745
2200,1.216672357
2201,1.199099609
2202,1.254861899
2203,1.156598573
2204,1.192798664
2205,1.225207509
2206,1.197860469
2207,1.231133864
2208,1.19872055
2209,1.146395887
2210,1.204873153
2211,1.229039462
2212,1.206067659
2213,1.186500639
2214,1.183855466
2215,1.16506074
2216,1.202457862
2217,1.147392777
2218,1.254388009
2219,1.153742393
2220,1.251489431
2221,1.198309806
2222,1.139380239
2223,1.23896436
2224,1.183419706
2225,1.190114159
2226,1.224422085
2227,1.216303103
2228,1.1964618
2229,1.242127555
2230,1.191138446
2231,1.196368243
2232,1.16445587
2233,1.200096296
2234,1.143863203
2235,1.263922947
2236,1.26694912
2237,1.174211108
2238,1.21498666
2239,1.142120261
2240,1.202287744
2241,1.128289374
2242,1.192705192
2243,1.159894667
2244,1.216646597
2245,1.18764733
2246,1.204160502
2247,1.169811949
2248,1.286880121
2249,1.237878721
2250,1.180367547
2251,1.142705674
2252,1.168897528
2253,1.223844289
2254,1.237886695
2255,1.199545573
2256,1.22904012
2257,1.171896113
2258,1.159872921
2259,1.139924634
2260,1.160268066
2261,1.188910099
2262,1.228684228
2263,1.207974696
2264,1.158060439
2265,1.124072951
2266,1.228203644
2267,1.080398658
2268,1.2573037
2269,1.198574439
2270,1.214513306
2271,1.14783374
2272,1.241842249
2273,1.212220229
2274,1.133425053
2275,1.236660768
2276,1.142336563
2277,1.181037886
2278,1.256779104
2279,1.076020672
2280,1.230165456
2281,1.187052607
2282,1.228545442
2283,1.18476333
2284,1.186845086
2285,1.240232378
2286,1.230800057
2287,1.261287636
2288,1.194471491
2289,1.197411755
2290,1.221549303
2291,1.218895622
2292,1.208981681
2293,1.142362547
2294,1.196967816
2295,1.151516632
2296,1.21262703
2297,1.327695771
2298,1.215551285
2299,1.193696626
2300,1.253482715
2301,1.183465105
2302,1.174718649
2303,1.116106738
2304,1.213643278
2305,1.196084324
2306,1.196021241
2307,1.152554588
2308,1.169635163
2309,1.229335971
2310,1.261635511
2311,1.154064749
2312,1.218583546
2313,1.174321421
2314,1.241269672
2315,1.198324892
2316,1.141631004
2317,1.166556494
2318,1.165527937
2319,1.228646255
2320,1.206062765
2321,1.217660067
2322,1.165914533
2323,1.243061669
2324,1.165004306
2325,1.204062908
2326,1.080183805
2327,1.195101653
2328,1.245969885
2329,1.143082655
2330,1.212188876
2331,1.16363523
2332,1.220743483
2333,1.153778458
2334,1.200273396
2335,1.189133989
2336,1.233619667
2337,1.257327007
2338,1.179696529
2339,1.231451049
2340,1.198897493
2341,1.259055368
2342,1.283641354
2343,1.225695062
2344,1.161579164
2345,1.171421275
2346,1.201476991
2347,1.285727474
2348,1.225103167
2349,1.166517444
2350,1.204019591
2351,1.193960199
2352,1.196147236
2353,1.192525539
2354,1.187899086
2355,1.201975551
2356,1.260512863
2357,1.140462761
2358,1.226105337
2359,1.207234584
2360,1.190906554
2361,1.183119316
2362,1.262825305
2363,1.155390771
2364,1.158017366
2365,1.195434066
2366,1.226422121
2367,1.253385469
2368,1.222357635
2369,1.2126946
2370,1.215975018
2371,1.215456409
2372,1.15388962
2373,1.208206517
2374,1.181597928
2375,1.13705399
2376,1.179656971
2377,1.252787061
2378,1.200893655
2379,1.241965512
2380,1.182685123
2381,1.185569399
2382,1.178885116
2383,1.230713832
2384,1.221769483
2385,1.243055872
2386,1.242802552
2387,1.174030519
2388,1.208087879
2389,1.181302519
2390,1.203216972
2391,1.246700309
2392,1.219430954
2393,1.221563585
2394,1.217828806
2395,1.160852602
2396,1.16287346
2397,1.16643904
2398,1.228824918
2399,1.175606351
2400,1.267308296
2401,1.215050362
2402,1.210225385
2403,1.176395571
2404,1.224404944
2405,1.208542508
2406,1.1088013
2407,1.181175315
2408,1.194022649
2409,1.152983938
2410,1.236993346
2411,1.197657397
2412,1.186681361
2413,1.174947965
2414,1.26604602
2415,1.250368141
2416,1.222820484
2417,1.17703294
2418,1.205414548
2419,1.181911589
2420,1.181994982
2421,1.178032572
2422,1.207113282
2423,1.207192325
2424,1.18428268
2425,1.187986859
2426,1.203663171
2427,1.186552104
2428,1.201797303
2429,1.250057938
2430,1.196418206
2431,1.235538325
2432,1.205772759
2433,1.132435394
2434,1.183984434
2435,1.185969501
2436,1.198196555
2437,1.260661564
2438,1.212137924
2439,1.184668769
2440,1.115195549
2441,1.222457526
2442,1.200552047
2443,1.16229551
2444,1.190592951
2445,1.214261527
2446,1.249034037
2447,1.24280066
2448,1.302812867
2449,1.183916262
2450,1.206010546
2451,1.227679811
2452,1.158826545
2453,1.166165435
2454,1.176111148
2455,1.147574854
2456,1.216364513
2457,1.159563156
2458,1.139346283
2459,1.233829618
2460,1.180665749
2461,1.194986525
2462,1.143991559
2463,1.258346719
2464,1.21578413
2465,1.194094201
2466,1.185084022
2467,1.211693765
2468,1.277699182
2469,1.210649367
2470,1.231847551
2471,1.172625037
2472,1.198473591
2473,1.172517995
2474,1.236158509
2475,1.149206327
2476,1.192040755
2477,1.148468879
2478,1.20031059
2479,1.165305264
2480,1.269573669
2481,1.242316528
2482,1.218639346
2483,1.211042286
2484,1.139974653
2485,1.224867839
2486,1.273734276
2487,1.148925229
2488,1.239184596
2489,1.238027489
2490,1.224798339
2491,1.312714887
2492,1.173872214
2493,1.277870768
2494,1.214358318
2495,1.21038576
2496,1.209385128
2497,1.232022123
2498,1.12093578
2499,1.172300057
2500,1.181328084
2501,1.231361539
2502,1.160383703
2503,1.23779427
2504,1.169118615
2505,1.191911213
2506,1.211606039
2507,1.205014506
2508,1.24934407
2509,1.217418828
2510,1.224994402
2511,1.163708852
2512,1.212521454
2513,1.291507013
2514,1.139589858
2515,1.192441787
2516,1.188036837
2517,1.205130892
2518,1.247246373
2519,1.260724499
2520,1.184365598
2521,1.147233272
2522,1.216409919
2523,1.159286339
2524,1.184441277
2525,1.198705889
2526,1.194978723
2527,1.207347784
2528,1.228648229
2529,1.233467971
2530,1.19167499
2531,1.261781857
2532,1.128345954
2533,1.189304377
2534,1.214897686
2535,1.154029468
2536,1.198250677
2537,1.202209687
2538,1.144532262
2539,1.218486694
2540,1.149625445
2541,1.199017506
2542,1.223010792
2543,1.271840779
2544,1.154043201
2545,1.215610883
2546,1.125992442
2547,1.215093372
2548,1.169270424
2549,1.247945313
2550,1.207633911
2551,1.239217216
2552,1.202262659
2553,1.162240926
2554,1.135320826
2555,1.231808247
2556,1.177813716
2557,1.201166605
2558,1.20117421
2559,1.163783767
2560,1.217052245
2561,1.219544085
2562,1.120665928
2563,1.224653243
2564,1.182368497
2565,1.194310703
2566,1.21884771
2567,1.149446894
2568,1.216894468
2569,1.108038983
2570,1.201629931
2571,1.226822353
2572,1.215882489
2573,1.16169392
2574,1.155074833
2575,1.240122663
2576,1.120958773
2577,1.149799309
2578,1.146953468
2579,1.188611159
2580,1.208824088
2581,1.175354956
2582,1.201843301
2583,1.154760296
2584,1.223441784
2585,1.117358095
2586,1.217921439
2587,1.274731254
2588,1.246509989
2589,1.186121841
2590,1.172509398
2591,1.261719508
2592,1.212378541
2593,1.16831338
2594,1.25996164
2595,1.191637653
2596,1.249297439
2597,1.179082402
2598,1.112220832
2599,1.138895146
2600,1.232519645
2601,1.261014869
2602,1.183283488
2603,1.202338784
2604,1.22494878
2605,1.217461972
2606,1.205001933
2607,1.251791549
2608,1.124048369
2609,1.205826377
2610,1.194589745
2611,1.23126447
2612,1.256166049
2613,1.180602698
2614,1.20107505
2615,1.133261333
2616,1.173937023
2617,1.258642608
2618,1.195693301
2619,1.229132827
2620,1.171296133
2621,1.171588651
2622,1.150757588
2623,1.256827715
2624,1.202468058
2625,1.225283398
2626,1.171497778
2627,1.166834329
2628,1.229293583
2629,1.249605117
2630,1.178028232
2631,1.197433609
2632,1.162941361
2633,1.210807431
2634,1.141826139
2635,1.211012446
2636,1.223794968
2637,1.231308479
2638,1.288557431
2639,1.11788306
2640,1.235118286
2641,1.14239855
2642,1.210054062
2643,1.132386043
2644,1.215863863
2645,1.168452036
2646,1.21920301
2647,1.135434917
2648,1.270116145
2649,1.172682809
2650,1.305644992
2651,1.221810724
2652,1.201777468
2653,1.168254729
2654,1.228770404
2655,1.195273349
2656,1.225090586
2657,1.23748077
2658,1.163451075
2659,1.217435559
2660,1.17707691
2661,1.150477595
2662,1.142424036
2663,1.162667407
2664,1.21596453
2665,1.212651921
2666,1.145667966
2667,1.194527707
2668,1.230060731
2669,1.176973564
2670,1.227978993
2671,1.220929829
2672,1.15467304
2673,1.251343698
2674,1.230101177
2675,1.107363375
2676,1.150926678
2677,1.206363739
2678,1.218358114
2679,1.216224804
2680,1.190407547
2681,1.2586141
2682,1.219003136
2683,1.171638583
2684,1.205436471
2685,1.2568813
2686,1.227786335
2687,1.172375792
2688,1.222815575
2689,1.191927697
2690,1.155172708
2691,1.127704031
2692,1.201158706
2693,1.176502763
2694,1.20644703
2695,1.234441264
2696,1.215276652
2697,1.262181438
2698,1.298391205
2699,1.235556731
2700,1.25162421
2701,1.187513575
2702,1.213283666
2703,1.155110166
2704,1.17718678
2705,1.198952806
2706,1.232051572
2707,1.217712575
2708,1.126321479
2709,1.153661564
2710,1.148268965
2711,1.209170502
2712,1.202772864
2713,1.215647246
2714,1.181984654
2715,1.198161817
2716,1.225907621
2717,1.186125039
2718,1.216453693
2719,1.241227364
2720,1.214175552
2721,1.190600407
2722,1.176670604
2723,1.237663177
2724,1.172876588
2725,1.149765213
2726,1.175904459
2727,1.237052768
2728,1.162384228
2729,1.194672116
2730,1.190012077
2731,1.166076173
2732,1.213755384
2733,1.17042792
2734,1.197413157
2735,1.207131673
2736,1.193349496
2737,1.195051096
2738,1.168595347
2739,1.257941718
2740,1.193687064
2741,1.193259212
2742,1.126170279
2743,1.230144147
2744,1.262108288
2745,1.220217917
2746,1.208882033
2747,1.170839649
2748,1.259478118
2749,1.226418823
2750,1.212771845
2751,1.262085399
2752,1.178082721
2753,1.184044953
2754,1.270572935
2755,1.185912482
2756,1.187961185
2757,1.284872669
2758,1.181099207
2759,1.203923825
2760,1.222706465
2761,1.156026704
2762,1.225659171
2763,1.152319036
2764,1.191817885
2765,1.26316079
2766,1.172672889
2767,1.180756261
2768,1.254040433
2769,1.212095747
2770,1.243619192
2771,1.21795231
2772,1.229317463
2773,1.157187116
2774,1.220572974
2775,1.147833764
2776,1.20327953
2777,1.106644325
2778,1.132847643
2779,1.1954364
2780,1.20373185
2781,1.200322572
2782,1.144662744
2783,1.196464624
2784,1.228678938
2785,1.213138511
2786,1.097986054
2787,1.225805577
2788,1.19288957
2789,1.266338956
2790,1.23154282
2791,1.195332862
2792,1.102226551
2793,1.240304064
2794,1.178305151
2795,1.123593965
2796,1.264343986
2797,1.166690701
2798,1.268270135
2799,1.208392492
2800,1.209993256
2801,1.192730904
2802,1.220100267
2803,1.204815113
2804,1.201932511
2805,1.202890461
2806,1.232113416
2807,1.267379799
2808,1.22330637
2809,1.218048499
2810,1.196249066
2811,1.179475934
2812,1.225750894
2813,1.225452861
2814,1.241238878
2815,1.230621767
2816,1.137313741
2817,1.248485772
2818,1.118400079
2819,1.20469142
2820,1.150545903
2821,1.138126175
2822,1.241952237
2823,1.165928012
2824,1.148786571
2825,1.120801377
2826,1.2080715
2827,1.25903251
2828,1.167817817
2829,1.241614946
2830,1.184048362
2831,1.236835874
2832,1.23501485
2833,1.259159177
2834,1.111714404
2835,1.216894233
2836,1.223770102
2837,1.215830032
2838,1.184765589
2839,1.203139148
2840,1.099755675
2841,1.197605816
2842,1.215208127
2843,1.242843554
2844,1.217552732
2845,1.167549796
2846,1.184875248
2847,1.209234322
2848,1.175370648
2849,1.193989117
2850,1.210823137
2851,1.256188693
2852,1.197402516
2853,1.095822306
2854,1.17919859
2855,1.164910479
2856,1.195328613
2857,1.093870034
2858,1.18658528
2859,1.184615042
2860,1.25901582
2861,1.216661064
2862,1.198526319
2863,1.140912293
2864,1.148579126
2865,1.203361694
2866,1.190076158
2867,1.174455642
2868,1.181097624
2869,1.256528192
2870,1.22154159
2871,1.264119026
2872,1.204911513
2873,1.272129609
2874,1.172850033
2875,1.159258395
2876,1.243362313
2877,1.24479638
2878,1.148399339
2879,1.171472134
2880,1.172789608
2881,1.237689526
2882,1.265286311
2883,1.235785062
2884,1.173468625
2885,1.18363127
2886,1.216560736
2887,1.10383759
2888,1.264055131
2889,1.177730642
2890,1.146825905
2891,1.227037786
2892,1.198683478
2893,1.226947577
2894,1.177063076
2895,1.218076951
2896,1.153551001
2897,1.193165471
2898,1.26542404
2899,1.13949249
2900,1.213328987
2901,1.151501734
2902,1.211536388
2903,1.204742561
2904,1.227885001
2905,1.157761384
2906,1.208317738
2907,1.251298559
2908,1.168355398
2909,1.166843112
2910,1.20898235
2911,1.211393195
2912,1.198979028
2913,1.194803409
2914,1.160069028
2915,1.179042897
2916,1.173914145
2917,1.22327555
2918,1.21145216
2919,1.242455195
2920,1.170170872
2921,1.151610897
2922,1.235649083
2923,1.209148939
2924,1.192031893
2925,1.16972174
2926,1.194673896
2927,1.212355802
2928,1.230135574
2929,1.222344952
2930,1.171218242
2931,1.231108547
2932,1.167820114
2933,1.268753175
2934,1.167273018
2935,1.192517628
2936,1.216434776
2937,1.258587608
2938,1.190642357
2939,1.145549413
2940,1.185694389
2941,1.153141108
2942,1.250568458
2943,1.183629504
2944,1.209613136
2945,1.248870079
2946,1.172034671
2947,1.190020798
2948,1.279608732
2949,1.167671941
2950,1.218552026
2951,1.200587265
2952,1.232840432
2953,1.230457226
2954,1.192678364
2955,1.11537582
2956,1.248724269
2957,1.168265936
2958,1.21225163
2959,1.188237702
2960,1.251353226
2961,1.15068538
2962,1.227448282
2963,1.17594614
2964,1.252088122
2965,1.155096205
2966,1.16776341
2967,1.171106612
2968,1.243715401
2969,1.237382333
2970,1.204266721
2971,1.175741545
2972,1.216372904
2973,1.249497394
2974,1.239664824
2975,1.169035538
2976,1.139345154
2977,1.212514826
2978,1.144888959
2979,1.172835023
2980,1.176198666
2981,1.199981544
2982,1.212869951
2983,1.313035827
2984,1.245181725
2985,1.187774561
2986,1.184727005
2987,1.297830221
2988,1.194291253
2989,1.247320174
2990,1.228918237
2991,1.19550951
2992,1.180509365
2993,1.151900414
2994,1.209649831
2995,1.206166177
2996,1.19106281
2997,1.23142906
2998,1.238018866
2999,1.205582734
3000,1.095347355
3001,1.251178631
3002,1.265046941
3003,1.173786368
3004,1.228479716
3005,1.168779347
3006,1.189846357
3007,1.207812405
3008,1.206220955
3009,1.228685188
3010,1.257257291
3011,1.208326904
3012,1.247843332
3013,1.238538427
3014,1.225932167
3015,1.199802309
3016,1.23140856
3017,1.160435978
3018,1.228964738
3019,1.142241529
3020,1.234128824
3021,1.164822867
3022,1.210202429
3023,1.197895763
3024,1.213048647
3025,1.236880598
3026,1.179457559
3027,1.218202339
3028,1.160491917
3029,1.229277388
3030,1.13700868
3031,1.169268427
3032,1.235384344
3033,1.19392124
3034,1.155860255
3035,1.232712294
3036,1.263054727
3037,1.252722667
3038,1.153148171
3039,1.227216174
3040,1.224865253
3041,1.185006894
3042,1.230400064
3043,1.183350425
3044,1.19215278
3045,1.197923422
3046,1.163775124
3047,1.175091309
3048,1.255433059
3049,1.145687105
3050,1.130149152
3051,1.162390779
3052,1.232767739
3053,1.224396899
3054,1.216684669
3055,1.141710031
3056,1.195759075
3057,1.132236761
3058,1.280277536
3059,1.226602436
3060,1.166051319
3061,1.188625212
3062,1.196727401
3063,1.245600551
3064,1.183339791
3065,1.248659166
3066,1.253093287
3067,1.162445089
3068,1.245948987
3069,1.211580017
3070,1.228251741
3071,1.201786644
3072,1.168354883
3073,1.186422865
3074,1.135099476
3075,1.250322193
3076,1.199689413
3077,1.173485957
3078,1.211800001
3079,1.223672554
3080,1.144849707
3081,1.258493811
3082,1.223758081
3083,1.170776502
3084,1.20006227
3085,1.228422319
3086,1.182740574
3087,1.152069846
3088,1.239384861
3089,1.186556782
3090,1.146331052
3091,1.165796086
3092,1.170456321
3093,1.174254187
3094,1.198007204
3095,1.272329012
3096,1.219435666
3097,1.201840004
3098,1.1931992
3099,1.19395386
3100,1.198216985
3101,1.148718601
3102,1.195153625
3103,1.142829634
3104,1.13601581
3105,1.19213819
3106,1.180836837
3107,1.20092668
3108,1.236023902
3109,1.219245734
3110,1.27369811
3111,1.286852154
3112,1.205269482
3113,1.252039168
3114,1.150179369
3115,1.126678991
3116,1.177569234
3117,1.212982577
3118,1.195599723
3119,1.289254815
3120,1.163857266
3121,1.255724258
3122,1.204774279
3123,1.238358366
3124,1.256718015
3125,1.118729261
3126,1.140583885
3127,1.161201565
3128,1.157106418
3129,1.184077186
3130,1.147722539
3131,1.232294705
3132,1.260008258
3133,1.215849488
3134,1.136598262
3135,1.178430344
3136,1.178830775
3137,1.265676537
3138,1.217087654
3139,1.099859312
3140,1.198471197
3141,1.192906422
3142,1.227638023
3143,1.213226119
3144,1.199857621
3145,1.205075534
3146,1.130370799
3147,1.158326171
3148,1.133462212
3149,1.232283498
3150,1.286739908
3151,1.155924026
3152,1.207943253
3153,1.280120415
3154,1.139927015
3155,1.211575596
3156,1.203683853
3157,1.150569051
3158,1.178440939
3159,1.261062774
3160,1.169886389
3161,1.261006711
3162,1.229009897
3163,1.153340604
3164,1.26678139
3165,1.189553358
3166,1.154733405
3167,1.193061005
3168,1.254078796
3169,1.230358132
3170,1.194119601
3171,1.272610437
3172,1.179718541
3173,1.211277468
3174,1.218475139
3175,1.253279763
3176,1.245188963
3177,1.138773301
3178,1.25421638
3179,1.216614081
3180,1.208460231
3181,1.188226239
3182,1.245901357
3183,1.22274525
3184,1.14986066
3185,1.166467165
3186,1.189081437
3187,1.202492069
3188,1.196772753
3189,1.131849241
3190,1.217844046
3191,1.186881284
3192,1.207281354
3193,1.202155115
3194,1.219401678
3195,1.208947465
3196,1.187165288
3197,1.265071706
3198,1.18825115
3199,1.213468711
3200,1.186366593
3201,1.224856504
3202,1.231022841
3203,1.20112572
3204,1.226047072
3205,1.186580518
3206,1.179843872
3207,1.244807046
3208,1.126520733
3209,1.204356709
3210,1.217592798
3211,1.160328295
3212,1.192267129
3213,1.196034754
3214,1.222710358
3215,1.253059446
3216,1.141240669
3217,1.204792479
3218,1.168161931
3219,1.235880787
3220,1.307178223
3221,1.145780571
3222,1.195446284
3223,1.168447333
3224,1.086891859
3225,1.138505502
3226,1.174980144
3227,1.233144274
3228,1.154581347
3229,1.167732837
3230,1.214674811
3231,1.180457775
3232,1.176138658
3233,1.209997662
3234,1.162240255
3235,1.195608219
3236,1.152310409
3237,1.228864124
3238,1.16648621
3239,1.176463392
3240,1.214492373
3241,1.239149077
3242,1.201452585
3243,1.186865105
3244,1.22259372
3245,1.281657229
3246,1.117323649
3247,1.181854193
3248,1.235710128
3249,1.183885797
3250,1.198177824
3251,1.229017817
3252,1.299911206
3253,1.233603055
3254,1.230566131
3255,1.216165514
3256,1.261556245
3257,1.195010871
3258,1.177904783
3259,1.156971628
3260,1.094642389
3261,1.185427035
3262,1.210569549
3263,1.143710295
3264,1.215689618
3265,1.22024631
3266,1.200916416
3267,1.179726696
3268,1.247942747
3269,1.127649448
3270,1.158077594
3271,1.132062803
3272,1.183378442
3273,1.217445445
3274,1.124236127
3275,1.161297724
3276,1.236726761
3277,1.223205443
3278,1.170832398
3279,1.218181104
3280,1.210316719
3281,1.135702543
3282,1.190225933
3283,1.210898545
3284,1.220786532
3285,1.258516432
3286,1.200566191
3287,1.173447758
3288,1.215135023
3289,1.170801932
3290,1.223307852
3291,1.190492396
3292,1.197927733
3293,1.168633294
3294,1.182136839
3295,1.231377736
3296,1.228275917
3297,1.154736325
3298,1.24514824
3299,1.207462741
3300,1.168475233
3301,1.196041973
3302,1.209482424
3303,1.240703089
3304,1.230482876
3305,1.192469644
3306,1.253286665
3307,1.19734927
3308,1.269757456
3309,1.277647797
3310,1.150104964
3311,1.241416497
3312,1.171275662
3313,1.170880121
3314,1.290040943
3315,1.19415104
3316,1.214523234
3317,1.199523703
3318,1.231392333
3319,1.237343372
3320,1.150892547
3321,1.193115631
3322,1.264233891
3323,1.206223414
3324,1.218328094
3325,1.20922357
3326,1.174051115
3327,1.232243169
3328,1.244574024
3329,1.217496888
3330,1.26366014
3331,1.247495817
3332,1.213595672
3333,1.093918197
3334,1.202558405
3335,1.293359716
3336,1.173377433
3337,1.182160459
3338,1.240982581
3339,1.165071258
3340,1.196467711
3341,1.168108271
3342,1.192359562
3343,1.172452003
3344,1.174222251
3345,1.189667303
3346,1.171584203
3347,1.125862183
3348,1.251776239
3349,1.204174659
3350,1.202183608
3351,1.163188423
3352,1.228867703
3353,1.212794617
3354,1.132915645
3355,1.235081597
3356,1.258971592
3357,1.159437045
3358,1.225673972
3359,1.203557921
3360,1.256257018
3361,1.222274918
3362,1.137947472
3363,1.147972369
3364,1.202564651
3365,1.17972641
3366,1.222625197
3367,1.136900618
3368,1.263989987
3369,1.176636043
3370,1.14572294
3371,1.192583542
3372,1.288253609
3373,1.216200801
3374,1.236181315
3375,1.132003076
3376,1.163572412
3377,1.112689063
3378,1.206104246
3379,1.234720356
3380,1.233631483
3381,1.212213575
3382,1.153706766
3383,1.197981634
3384,1.258140986
3385,1.151360296
3386,1.11585115
3387,1.18381522
3388,1.237178044
3389,1.185497291
3390,1.15950229
3391,1.186653822
3392,1.234045667
3393,1.214197364
3394,1.219556413
3395,1.153427193
3396,1.234401759
3397,1.204331797
3398,1.158363449
3399,1.220232064
3400,1.20943507
3401,1.209429381
3402,1.155710085
3403,1.179845288
3404,1.152607085
3405,1.184292236
3406,1.246256223
3407,1.194444262
3408,1.224032688
3409,1.17507094
3410,1.211390169
3411,1.250416244
3412,1.202319681
3413,1.196990249
3414,1.16320769
3415,1.245951453
3416,1.174925791
3417,1.232781938
3418,1.15059061
3419,1.200879792
3420,1.149813816
3421,1.192492737
3422,1.199298868
3423,1.1655627
3424,1.2013484
3425,1.256371716
3426,1.160993667
3427,1.189175662
3428,1.222470035
3429,1.215682714
3430,1.1959754
3431,1.233013166
3432,1.252013814
3433,1.167439249
3434,1.177587943
3435,1.18436902
3436,1.180584973
3437,1.224227585
3438,1.220667967
3439,1.222320984
3440,1.171785872
3441,1.229655435
3442,1.225677707
3443,1.178643394
3444,1.142660255
3445,1.179311464
3446,1.1920659
3447,1.186909622
3448,1.223053688
3449,1.179696089
3450,1.178931702
3451,1.255675207
3452,1.107552026
3453,1.17121938
3454,1.136866699
3455,1.22921604
3456,1.23849332
3457,1.249166324
3458,1.183042206
3459,1.161916296
3460,1.154407117
3461,1.212092202
3462,1.251165708
3463,1.24069816
3464,1.171558246
3465,1.182031334
3466,1.293672232
3467,1.192192743
3468,1.160137005
3469,1.198324732
3470,1.248195684
3471,1.221473569
3472,1.230612689
3473,1.169968949
3474,1.195749597
3475,1.181911772
3476,1.194556039
3477,1.231545867
3478,1.186618862
3479,1.151407252
3480,1.238057703
3481,1.211722086
3482,1.190316051
3483,1.263372857
3484,1.187637198
3485,1.183001457
3486,1.218637082
3487,1.25489713
3488,1.189982718
3489,1.239834122
3490,1.177906088
3491,1.247898853
3492,1.228238453
3493,1.190152417
3494,1.31150017
3495,1.278944171
3496,1.239739822
3497,1.222794287
3498,1.216773615
3499,1.186955338
3500,1.195598915
3501,1.157668493
3502,1.174865073
3503,1.196051185
3504,1.187363309
3505,1.217053855
3506,1.272444537
3507,1.176333428
3508,1.235383526
3509,1.243771554
3510,1.336344315
3511,1.223649697
3512,1.231393553
3513,1.23514729
3514,1.187833301
3515,1.164400949
3516,1.202517535
3517,1.09631674
3518,1.193897428
3519,1.192026069
3520,1.264868367
3521,1.191717209
3522,1.271060277
3523,1.224663769
3524,1.138003681
3525,1.141015118
3526,1.188747104
3527,1.123550664
3528,1.222098798
3529,1.159269636
3530,1.129079371
3531,1.21878156
3532,1.224316441
3533,1.227954294
3534,1.27304147
3535,1.16593211
3536,1.186091226
3537,1.164064745
3538,1.236837652
3539,1.203314856
3540,1.264168205
3541,1.206438791
3542,1.194457899
3543,1.249250056
3544,1.13649585
3545,1.24385887
3546,1.25984591
3547,1.22477963
3548,1.236478071
3549,1.164073367
3550,1.239688737
3551,1.199590064
3552,1.249474504
3553,1.166206015
3554,1.158655797
3555,1.185995035
3556,1.183931427
3557,1.157632814
3558,1.185788447
3559,1.252987277
3560,1.165866771
3561,1.138049485
3562,1.180541931
3563,1.211233257
3564,1.197070348
3565,1.184352414
3566,1.214929845
3567,1.217127219
3568,1.257814161
3569,1.20401212
3570,1.189199782
3571,1.125805634
3572,1.165941629
3573,1.192999851
3574,1.16627661
3575,1.221556808
3576,1.21916768
3577,1.225109443
3578,1.205150566
3579,1.224716454
3580,1.165021558
3581,1.161826472
3582,1.207477933
3583,1.243009593
3584,1.179463536
3585,1.20803242
3586,1.216448318
3587,1.140167118
3588,1.127041614
3589,1.161718141
3590,1.219735984
3591,1.18054312
3592,1.282156832
3593,1.18632704
3594,1.248322004
3595,1.22676031
3596,1.243808268
3597,1.210411297
3598,1.22872891
3599,1.207197865
3600,1.172864692
3601,1.171193802
3602,1.134112377
3603,1.247027469
3604,1.196168199
3605,1.183964286
3606,1.123046139
3607,1.121563457
3608,1.180370826
3609,1.301425546
3610,1.220081383
3611,1.205187928
3612,1.23974035
3613,1.183154399
3614,1.165366254
3615,1.249066528
3616,1.1809459
3617,1.217333977
3618,1.242332416
3619,1.160381508
3620,1.193769331
3621,1.16863651
3622,1.117877153
3623,1.191595076
3624,1.184242717
3625,1.171818363
3626,1.166800274
3627,1.207362499
3628,1.209636062
3629,1.264213201
3630,1.189551386
3631,1.297648315
3632,1.169027324
3633,1.185931193
3634,1.299355809
3635,1.174506017
3636,1.130752326
3637,1.280062562
3638,1.159703118
3639,1.213823231
3640,1.206903892
3641,1.246131025
3642,1.123958631
3643,1.210864263
3644,1.237463985
3645,1.18687292
3646,1.213296869
3647,1.180881779
3648,1.181855684
3649,1.155594997
3650,1.196903663
3651,1.172124894
3652,1.225711608
3653,1.241581529
3654,1.177343873
3655,1.260018288
3656,1.135429168
3657,1.254657127
3658,1.249848556
3659,1.244606628
3660,1.233392707
3661,1.179766443
3662,1.249702954
3663,1.219025556
3664,1.178905361
3665,1.236509322
3666,1.231602327
3667,1.24286875
3668,1.17554262
3669,1.277652846
3670,1.14350887
3671,1.168303311
3672,1.277130438
3673,1.205324769
3674,1.22758199
3675,1.214896627
3676,1.244090334
3677,1.10773472
3678,1.205974556
3679,1.193533814
3680,1.258540012
3681,1.199928514
3682,1.225038671
3683,1.182632337
3684,1.14059012
3685,1.202917829
3686,1.170324572
3687,1.217631624
3688,1.161159069
3689,1.239991935
3690,1.171710212
3691,1.170139234
3692,1.18341267
3693,1.150441295
3694,1.227412608
3695,1.248621145
3696,1.186127915
3697,1.203403849
3698,1.188886957
3699,1.191269773
3700,1.183320561
3701,1.195628897
3702,1.091371643
3703,1.181444979
3704,1.159409339
3705,1.183946763
3706,1.216781139
3707,1.244909085
3708,1.148905336
3709,1.271737789
3710,1.192165237
3711,1.194685438
3712,1.24428866
3713,1.169406631
3714,1.177168881
3715,1.179483545
3716,1.173443891
3717,1.209420694
3718,1.214168921
3719,1.14099512
3720,1.210545689
3721,1.125610728
3722,1.116960606
3723,1.227501732
3724,1.299603233
3725,1.230279815
3726,1.183321188
3727,1.218857273
3728,1.136159491
3729,1.232084007
3730,1.191720098
3731,1.229448988
3732,1.199734582
3733,1.196487598
3734,1.177550095
3735,1.166538968
3736,1.206063017
3737,1.181102314
3738,1.149714626
3739,1.201769474
3740,1.240939442
3741,1.253893476
3742,1.201258467
3743,1.196796281
3744,1.207567518
3745,1.249781355
3746,1.156681915
3747,1.197278017
3748,1.15555832
3749,1.315047836
3750,1.282691593
3751,1.192033804
3752,1.188424955
3753,1.170357978
3754,1.16100556
3755,1.240006142
3756,1.259702939
3757,1.220971378
3758,1.181457456
3759,1.144300721
3760,1.145934998
3761,1.246205308
3762,1.222559672
3763,1.253007215
3764,1.206372214
3765,1.246169298
3766,1.181054849
3767,1.313180281
3768,1.249768836
3769,1.177352742
3770,1.176879943
3771,1.21035975
3772,1.197132966
3773,1.145547955
3774,1.149988546
3775,1.232405419
3776,1.216815382
3777,1.205887614
3778,1.195012192
3779,1.268426586
3780,1.289438312
3781,1.204949106
3782,1.22393662
3783,1.172511084
3784,1.138310626
3785,1.129576998
3786,1.187938974
3787,1.215300482
3788,1.212116352
3789,1.163703735
3790,1.190441257
3791,1.149992692
3792,1.207783511
3793,1.190674484
3794,1.1852843
3795,1.183648533
3796,1.156653934
3797,1.21372394
3798,1.19799087
3799,1.12924917
3800,1.248193406
3801,1.27537827
3802,1.216105613
3803,1.203180617
3804,1.186685393
3805,1.194034714
3806,1.18742323
3807,1.198644454
3808,1.17724861
3809,1.261276491
3810,1.219370554
3811,1.205301396
3812,1.192913841
3813,1.230448708
3814,1.165053978
3815,1.152830612
3816,1.24030108
3817,1.204370438
3818,1.187866426
3819,1.19811859
3820,1.139339688
3821,1.105666111
3822,1.181729042
3823,1.199459749
3824,1.194973483
3825,1.180777514
3826,1.193597373
3827,1.216719826
3828,1.217235547
3829,1.112601346
3830,1.240425046
3831,1.189763403
3832,1.140248183
3833,1.209179907
3834,1.249269665
3835,1.209031017
3836,1.203150598
3837,1.181685682
3838,1.1919083
3839,1.190601411
3840,1.181298401
3841,1.252315582
3842,1.1911681
3843,1.172167747
3844,1.185050262
3845,1.195670241
3846,1.223976081
3847,1.21048525
3848,1.187858003
3849,1.220267043
3850,1.216341148
3851,1.148798756
3852,1.246598011
3853,1.150736086
3854,1.196167559
3855,1.196085326
3856,1.231079721
3857,1.259105885
3858,1.151081829
3859,1.133566067
3860,1.167567655
3861,1.223577213
3862,1.211873774
3863,1.207009115
3864,1.266346712
3865,1.197124314
3866,1.219228074
3867,1.157421699
3868,1.214428376
3869,1.197990632
3870,1.18836621
3871,1.191027497
3872,1.164081934
3873,1.218503349
3874,1.159940537
3875,1.171970729
3876,1.189091748
3877,1.250811655
3878,1.196855229
3879,1.186165231
3880,1.138119763
3881,1.167567529
3882,1.175294542
3883,1.244054189
3884,1.189601321
3885,1.187895219
3886,1.18455845
3887,1.166845234
3888,1.206155229
3889,1.206854626
3890,1.239447396
3891,1.186269135
3892,1.165639136
3893,1.148978963
3894,1.165232163
3895,1.178501537
3896,1.12699519
3897,1.191030434
3898,1.220414912
3899,1.188473142
3900,1.209145715
3901,1.153717775
3902,1.136551621
3903,1.156232536
3904,1.186957078
3905,1.195980857
3906,1.229486007
3907,1.131181568
3908,1.200342235
3909,1.252535055
3910,1.194875792
3911,1.150132746
3912,1.193944301
3913,1.302327865
3914,1.185559035
3915,1.131673161
3916,1.15639526
3917,1.245564815
3918,1.181028689
3919,1.18786128
3920,1.191316824
3921,1.229820471
3922,1.236667975
3923,1.201903578
3924,1.162287876
3925,1.161636761
3926,1.143182367
3927,1.184766568
3928,1.218851909
3929,1.220430272
3930,1.161025237
3931,1.198720588
3932,1.165664878
3933,1.090955436
3934,1.170411455
3935,1.226263038
3936,1.164442966
3937,1.216113493
3938,1.260923404
3939,1.266439046
3940,1.177143023
3941,1.19871424
3942,1.188425795
3943,1.222106609
3944,1.18440934
3945,1.172217906
3946,1.201994495
3947,1.150526252
3948,1.125140501
3949,1.197438516
3950,1.249036443
3951,1.143123678
3952,1.181927596
3953,1.173682086
3954,1.149526236
3955,1.25638301
3956,1.233895608
3957,1.191306731
3958,1.24249016
3959,1.251175725
3960,1.201979046
3961,1.119454701
3962,1.183724233
3963,1.314414415
3964,1.22134995
3965,1.188071777
3966,1.218484995
3967,1.189056241
3968,1.125864064
3969,1.221531479
3970,1.180438632
3971,1.198153159
3972,1.162088658
3973,1.200851537
3974,1.188450615
3975,1.178797644
3976,1.276829074
3977,1.28368686
3978,1.21537359
3979,1.149860408
3980,1.096438334
3981,1.243046384
3982,1.200684907
3983,1.219223752
3984,1.212215688
3985,1.149666921
3986,1.25238968
3987,1.263773694
3988,1.157983904
3989,1.205425632
3990,1.261996359
3991,1.241328503
3992,1.207615184
3993,1.193667177
3994,1.251419248
3995,1.258808974
3996,1.230074805
3997,1.180789257
3998,1.143182555
3999,1.197965911
4000,1.144461049
