Raman Shift,Intensity
214.3785040343428,-191.834
224.78145843945092,-49.255
235.01908334044856,124.433
245.41130867789616,-82.955
255.63837774522108,-18.146
265.8602158678186,-238.496
276.23642015571386,-93.325
286.44772684514464,-67.401
296.8132434111685,-15.554
307.0140349346475,-59.624
317.209615658554,-80.363
327.399989574551,324.044
337.7442627077253,31.108
347.9241537664129,152.949
358.09885002992814,80.363
368.2683554736213,-49.255
378.5914504125685,129.618
388.7505051753542,95.917
398.90438108190574,129.618
409.0530820913264,-114.064
419.196612158652,41.478
429.3349752349313,95.917
439.626465572117,-25.924
449.75442592354375,119.248
459.8772311743669,-12.962
469.994885259468,139.987
480.1073921097559,95.917
490.2147556521086,147.764
500.31697980943136,139.987
510.41406850063504,134.802
520.5060256406359,197.019
530.5928551403995,139.987
540.6745609068894,127.025
550.7511468431039,41.478
560.8226168481124,-18.146
570.888974816975,51.847
580.9502246408374,150.356
590.8492821665859,72.586
600.9004070215597,173.688
610.9464353206786,217.758
620.9873709393651,246.273
631.0232177491416,295.528
641.0539796175653,375.891
650.9230482019848,292.936
660.9437310766662,318.859
670.9593405290361,168.503
680.9698804110958,46.662
690.8190579752118,-20.739
700.8195493193562,-15.554
710.8149825658329,-254.051
720.805361551138,69.994
730.6347081696804,93.325
740.6150689503047,80.363
750.4345613154874,90.732
760.404918953056,134.961
770.3702413346182,206.393
780.174941402227,293.625
790.1302832356378,385.258
799.925166080895,469.879
809.8705423523497,536.09
819.6556227125038,572.488
829.5910483782136,567.665
839.3663409610526,510.216
849.2918309472952,388.741
859.0573504311833,191.834
868.972919634427,69.994
878.7286806683987,303.305
888.6343439553166,-18.146
898.3803611591502,33.701
908.12155022542,7.777
918.0124213310264,-116.656
927.743888384779,-59.624
937.4705381077074,-93.325
947.3466501411676,36.293
957.0635996041163,189.242
966.7757425107702,238.496
976.6371284824854,-217.758
986.3395928168538,88.14
996.0372613373548,181.465
1005.7301375988682,121.841
1015.5719657306544,127.025
1025.255192198514,158.134
1034.9336371072422,98.509
1044.6073039976543,230.719
1054.2761964070742,62.216
1063.9403178693246,134.802
1073.5996719147442,38.885
1083.4074711432768,51.847
1093.057225399156,191.834
1102.70222286418,93.325
1112.3424670547538,98.509
1121.9779614837898,163.318
1131.6087096607444,103.694
1141.2347150916105,-10.369
1150.855981278939,41.478
1160.4725117218331,269.605
1170.0843099159465,134.802
1179.6913793534914,59.624
1189.293723523253,-220.35
1198.739039559725,-5.185
1208.3320185130287,-160.726
1217.9202825891407,165.911
1227.5038352631818,75.178
1237.0826800068826,5.185
1246.6568202885535,108.879
1256.226259573108,59.624
1265.639216696829,72.586
1275.1993388504195,62.216
1284.7547703264208,69.994
1294.3055145761757,111.471
1303.7000868433097,-18.146
1313.241541245312,204.796
1322.778318700337,194.426
1332.310422646282,69.994
1341.686663866676,-46.662
1351.2095051416618,417.369
1360.727683146746,108.879
1370.0902294598782,-54.439
1379.5991650801443,160.726
1388.9526223370776,44.07
1398.4523290278594,124.433
1407.7967104575073,85.548
1417.287201648047,80.363
1426.7730533080105,222.942
1436.1038095471376,95.917
1445.5804658554116,132.21
1454.9021792800197,10.369
1464.369653600741,31.108
1473.6823373500883,-171.095
1482.9905472474493,108.879
1492.444310209452,18.146
1501.7435100404182,23.331
1511.1881242589734,95.917
1520.4783270994303,-33.701
1529.764072276041,194.426
1539.1950247490097,10.369
1548.4717924494323,82.955
1557.7441121511074,111.471
1567.1614324998736,64.809
1576.4247941832873,318.859
1585.6837175051332,36.293
1594.9382056544855,15.554
1604.3374199708342,145.172
1613.5829759239496,-150.356
1622.8241063047317,-59.624
1632.0608142900164,228.127
1641.2931030535765,33.701
1650.6697762525291,106.286
1659.8931649322622,20.739
1669.1121439444323,-36.293
1678.3267164506542,5.185
1687.53688560953,132.21
1696.7426545766284,12.962
1705.9440265045123,129.618
1715.1410045427183,-134.802
1724.3335918377925,12.962
1733.5217915332687,108.879
1742.705606769683,135.131
1751.8850406845886,121.327
1761.0600964125188,79.969
1770.230777085024,23.557
1779.397085830693,-35.401
1788.55902577511,-84.407
1797.7166000408906,-110.955
1806.8698117476447,-102.541
1816.0186640120735,-46.662
1825.163159947857,10.369
1834.1559155330324,-69.994
1843.29177827917,-18.146
1852.4232939699289,158.134
1861.550465707216,-176.28
1870.673296589972,2.592
1879.644751645923,233.312
1888.758979994156,-2.592
1897.8688767172423,5.185
1906.974444902422,-127.025
1915.9289277003045,-85.548
1925.025917750907,69.994
1934.118588458099,67.401
1943.060390766601,98.509
1952.144501554074,215.165
1961.2243021666216,64.809
1970.153450902042,59.624
1979.224709758193,124.433
1988.1454604369865,228.127
1997.208189584475,-12.962
2006.120554048888,67.401
2015.1747655127983,-10.369
2024.0787555828572,49.255
2033.12446136566,132.21
2042.0200888391555,189.242
2051.057300920809,318.859
2059.9445775734057,134.802
2068.9733079113576,228.127
2077.852245496608,54.439
2086.8725060258803,-54.439
2095.743116275291,197.019
2104.6096010526526,38.885
2113.6172135316083,212.573
2122.4753884816528,111.471
2131.329446630596,106.286
2140.324437642892,-12.962
2149.170203423979,85.548
2158.011861050589,186.649
2166.994257105456,-137.395
2175.8276397748195,-139.987
2184.656922912145,108.879
2193.48210937062,145.172
2202.303202000803,-67.401
2211.2647105948345,108.879
2220.077557114586,186.649
2228.886318388424,49.255
2237.6909972563008,44.07
2246.4915965555265,114.064
2255.2881191208,-25.924
2264.0805677841927,28.516
2272.8689453751285,264.42
2281.6532547204406,194.426
2290.5774032157133,77.771
2299.353517963282,-98.509
2308.125572976198,18.146
2316.893571070781,10.369
2325.6575150607823,36.293
2334.273835606975,82.955
2343.029746164546,137.395
2351.781610997117,-285.159
2360.5294329081007,49.255
2369.273214698267,212.573
2378.0129591658333,64.809
2386.7486691064114,67.401
2395.48034731306,-41.478
2404.2079965762314,88.14
2412.788641914361,80.363
2421.5083075861257,163.318
2430.2239526247795,98.509
2438.9355798105607,72.586
2447.64319192111,38.885
2456.204142101211,82.955
2464.9037980916983,165.911
2473.5994472792227,-20.739
2482.148638712344,-18.146
2490.836348166158,2.592
2499.5200590665554,44.07
2508.0575159626023,-121.841
2516.7333034706826,57.032
2525.405100652257,62.216
2533.930847154741,15.554
2542.5947372405863,77.771
2551.112711590584,23.331
2559.768705390503,-38.885
2568.2789182109263,-2.592
2576.927026515033,-46.662
2585.5711635713087,119.248
2594.069721988235,0.0
2602.5644435408976,-64.809
2611.196813145194,-5.185
2619.683804921093,93.325
2628.3083212822166,33.701
2636.7875938271245,-18.146
2645.404267656864,158.134
2653.875831497382,194.426
2662.343576738021,64.809
2670.948539131641,114.064
2679.408591378582,163.318
2687.8648328054915,-95.917
2696.4581076233444,-111.471
2704.906671724595,18.146
2713.351432764532,90.732
2721.792393310454,80.363
2730.370143142005,10.369
2738.8034471581705,77.771
2747.232958411034,111.471
2755.658679458633,62.216
2764.220946338093,-72.586
2772.639031576786,12.962
2781.053334313052,54.439
2789.463857095703,-88.14
2797.8706024712737,28.516
2806.2735729839987,-46.662
2814.672771175843,106.286
2823.0681995864725,189.242
2831.459860753297,116.656
2839.847757211428,23.331
2848.231891493713,137.395
2856.612266130724,119.248
2864.988883650767,46.662
2873.3617465798743,158.134
2881.7308574418275,88.14
2890.096218758139,75.178
2898.457833048058,139.987
2906.815702828586,220.35
2915.169830614461,95.917
2923.5202189181878,127.025
2931.8668702499926,-38.885
2940.209787117892,-54.439
2948.41001618022,127.025
2956.7455337723804,69.994
2965.077324369493,64.809
2973.405390470638,-36.293
2981.7297345726547,-12.962
2989.9117125592966,25.924
2998.2286820744484,-108.879
3006.5419370261297,82.955
3014.8514799023105,18.146
3023.0189130185245,82.955
3031.3211009634906,-25.924
3039.619584242202,67.401
3047.776149306213,-197.019
3056.067292329164,-59.624
3064.2166442633534,75.178
3072.500456765243,119.248
3080.780576892153,139.987
3088.919096831967,23.331
3097.1919010483834,106.286
3105.3232317767324,103.694
3113.588729774354,28.516
3121.712880813,-41.478
3129.9710822664056,77.771
3138.0880631202745,82.955
3146.338977686973,103.694
3154.448797844241,80.363
3162.692435164703,-2.592
3170.7951040967964,31.108
3178.894230970407,38.885
3187.127000956163,-15.554
3195.218990740796,-64.809
3203.3074454664093,-108.879
3211.5293695924192,82.955
3219.610701328027,10.369
3227.688504985643,215.165
3235.899604670318,178.872
3243.9702993997853,106.286
3252.03747301393,-12.962
3260.1011278165533,33.701
3268.297848330192,57.032
3276.354412870096,80.363
3284.407465536773,103.694
3292.4570086259846,119.248
3300.5030444314834,-57.032
3308.545575245,67.401
3316.720827896272,88.14
3324.756296283769,-5.185
3332.788266581294,90.732
3340.816741072602,46.662
3348.8417220394404,189.242
3356.8632117615925,207.388
3364.8812125168406,33.701
3372.895726580995,119.248
3380.906756227865,163.318
3388.91430372934,0.0
3396.918371355256,165.911
3404.9189613735507,163.318
3412.9160760501472,44.07
3420.909717649003,72.586
3428.8998884321263,-49.255
3436.886590659553,-318.859
3444.734546370892,127.025
3452.714376952972,-7.777
3460.690745709508,46.662
3468.663654892749,111.471
3476.633106752961,49.255
3484.5991035384795,-5.185
3492.4267178764712,134.802
3500.385869715596,-246.273
3508.341573175334,72.586
3516.293830496281,36.293
3524.1079469444667,279.974
3532.0533770164475,-46.662
3539.9953676218797,98.509
3547.7993978646555,31.108
3555.734574435446,-25.924
3563.666318194715,111.471
3571.460281747888,0.0
3579.385224652753,77.771
3587.30674138396,171.095
3595.090657713052,-23.331
3603.00538673612,261.828
3610.782634691175,25.924
3618.6905847266535,36.293
3626.461172873067,33.701
3634.362352626544,44.07
3642.1262895150494,-25.924
3650.020707677235,33.701
3657.778001843908,38.885
3665.665667090652,152.949
3673.416327056992,7.777
3681.163701429177,28.516
3689.041282322214,72.586
3696.782035212709,147.764
3704.6528847781447,114.064
3712.3870246721344,101.102
3720.117889469839,33.701
3727.845481251112,59.624
3735.702951367959,57.032
3743.4239470074463,20.739
3751.141675895298,2.592
3758.989119491133,-134.802
3766.700264858686,12.962
3774.408149723422,46.662
3782.1127761528696,0.0
3789.814146212797,116.656
3797.644959575024,404.407
3805.339767031168,103.694
3813.03132434014,199.611
3820.7196335607214,-62.216
3828.404696749953,101.102
3836.086515963114,72.586
3843.76509325378,406.999
3851.4404306737633,-25.924
3859.112530273167,337.006
3866.7813941003615,90.732
3874.4470242019815,28.516
3882.109422622947,75.178
3889.7685914064414,49.255
3897.4245325939337,-31.108
3905.0772482251705,233.312
3912.7267403381848,160.726
3920.373010969284,80.363
3928.016062153074,51.847
3935.655895922435,-12.962
3943.292514308545,181.465
3950.925919340858,-15.554
3958.424585178429,59.624
3966.051624900327,111.471
3973.675457311714,7.777
3981.296084435249,-12.962
3988.913508291902,54.439
3996.396478310664,20.739
4004.007556831755,75.178
4011.615438103967,12.962
4019.220124141517,31.108
4026.690583777876,-7.777
4034.288940385857,7.777
4041.8841077570687,62.216
4049.3452186808136,-25.924
4056.934068499933,80.363
4064.519735065173,199.611
4071.971514814119,127.025
4079.550875675057,-93.325
4086.996462302253,194.426
4094.5695253181984,103.694
4102.008926541021,75.178
4109.575699558212,59.624
4117.008923081237,-10.369
4124.569413932906,-18.146
4131.996467447912,160.726
4139.550683954272,59.624
4146.971575140262,62.216
4154.519525108568,2.592
4161.93426163181,85.548
4169.475952856366,347.375
4228.011654085007,-54.439
4235.396210255021,46.662
4242.907210725418,95.917
4250.415076793586,178.872
4257.7904449892885,145.172
4265.292102093408,129.618
4272.790630641473,243.681
4280.156827999919,101.102
4287.649159161061,41.478
4295.138367597785,163.318
4302.4954112134365,44.07
4309.978433811593,28.516
4317.329402006981,163.318
4324.8062464273535,23.331
4332.151146724958,381.076
4339.621820615692,145.172
4346.960660525576,51.847
4354.425171522191,132.21
4361.757958542046,2.592
4369.216314267462,-41.478
4376.543055882612,396.63
4383.9952639471885,-18.146
4391.315967630617,-77.771
4398.762035632179,-36.293
4406.07670884455,124.433
4413.516644368407,59.624
4420.825294558097,54.439
4428.130962180556,88.14
4435.561739780205,106.286
4442.861395497304,-10.369
4450.1580741507205,36.293
4457.579710724684,82.955
4464.870388562711,57.032
4472.158094827057,287.751
4479.570607232323,38.885
4486.852323743988,139.987
4494.131074158497,150.356
4501.534479210626,-111.471
4508.807250907994,85.548
4516.077061971264,199.611
4523.3439142079005,-90.732
4530.735219799091,72.586
4537.996107969229,-98.509
4545.254042757973,41.478
4552.509025966887,199.611
4559.888261734326,77.771
4567.13729547953,46.662
4574.383383072374,57.032
4581.626526308552,124.433
4588.866726982291,15.554
4596.103986886381,-51.847
4603.338307812148,28.516
4610.69653172473,57.032
4617.92492857972,15.554
4625.150391852971,44.07
4632.372923329975,-62.216
4639.592524794789,18.146
4646.809198030001,88.14
4654.022944816745,106.286
4661.233766934747,72.586
4668.441666162253,36.293
4675.646644276094,36.293
4682.8487030516335,51.847
4690.047844262837,-49.255
4697.244069682201,67.401
4704.437381080781,-57.032
4711.627780228235,23.331
4718.815268892759,129.618
4725.999848841122,134.802
4733.181521838655,121.841
4740.3602896492885,-111.471
4747.536154035501,62.216
4754.583300303697,25.924
4761.753413983191,67.401
4768.9206294863325,173.688
4776.084948569973,-2.592
4783.246372989488,-72.586
4790.404904498872,-2.592
4797.435032206777,7.777
4804.5878338284165,-20.739
4811.73774776268,178.872
4818.884775757928,-44.07
4826.028919561082,15.554
4833.044920461813,-64.809
4840.183351639585,36.293
4847.3189038270575,33.701
4854.451578765569,108.879
4861.456318765864,-5.185
4868.58329482688,54.439
4875.707398824052,98.509
4882.703723295803,-46.662
4889.822138682386,106.286
4896.937687177771,-259.235
4903.925611277555,-72.586
4911.035481404608,46.662
4918.142489800703,-31.108
4925.122028648751,75.178
4932.223368894192,119.248
4939.197342363797,-10.369
4946.293021236786,101.102
4953.385846941688,191.834
4960.35146024984,-134.802
4967.43863475923,-12.962
4974.398699333346,225.535
4981.480229398396,303.305
4988.43475186592,-20.739
4995.510644227063,20.739
5002.459631204903,33.701
5009.529892591847,31.108
5016.473350686378,171.095
5023.537987818112,88.14
5030.475923625207,139.987
5037.534943210041,-28.516
5044.467363315067,46.662
5051.397052412052,-12.962
5058.447683028528,-18.146
5065.371866252855,349.968
5072.416896017057,0.0
5079.335579928018,69.994
5086.251540943114,38.885
5093.288206657562,-121.841
5100.198678149784,124.433
5107.106431592307,119.248
5114.134748143202,-28.516
5121.037021830118,82.955
5127.93658230202,44.07
5134.833431158368,254.051
5141.85065500065,114.064
5148.742037069234,145.172
5155.630712341699,-18.146
5162.516682412504,31.108
5169.522839786696,235.904
5176.403355996677,64.809
5183.281171809234,145.172
5190.156288813778,69.994
5197.028708598496,-72.586
5204.021081907653,-62.216
5210.888063918697,46.662
5217.752353495271,-282.566
5224.613952220541,0.0
5231.472861676462,134.802
5238.329083443728,85.548
5245.182619101804,57.032
5252.033470228904,-28.516
5258.881638402017,209.981
5265.727125196914,121.841
5272.569932188097,49.255
5279.532181775125,15.554
5286.369586094326,44.07
5293.204315354014,134.802
5300.036371123795,-25.924
5306.865754971979,62.216
5313.692468465706,-31.108
5320.516513170878,-49.255
5327.216103720151,150.356
5334.034863128356,142.579
5340.850958410447,0.0
5347.664391127459,-18.146
5354.475162839211,-25.924
5361.283275104273,106.286
5368.088729480027,85.548
5374.891527522632,-69.994
5381.6916707870405,-31.108
5388.489160826968,163.318
5395.162686039381,82.955
5401.954921596684,98.509
5408.744508555763,142.579
5415.531448465517,-44.07
5422.31574287366,46.662
5428.976315601984,150.356
5435.7553708175255,-119.248
5442.531785139763,36.293
5449.305560111599,80.363
5456.076697274744,80.363
5462.724355191152,88.14
5469.490268392445,82.955
5476.253548375513,57.032
5482.893493883399,-2.592
5489.651558992991,-12.962
5496.406995464167,-20.739
5503.039241977291,116.656
5509.789472642318,90.732
5516.5370792381145,165.911
5523.161640139158,80.363
5529.904049975114,51.847
5536.643840300443,-18.146
5543.260728941095,197.019
5549.995331531944,88.14
5556.607128017575,248.866
5563.336548861262,-2.592
5569.943259067753,-12.962
5576.667504142417,-64.809
5583.269133936614,93.325
5589.988209211173,57.032
5596.58476445092,2.592
5603.298675885118,202.203
5609.890162419251,165.911
5616.598915963696,5.185
5623.185339632037,15.554
5629.888941228186,5.185
5636.470307861637,75.178
5643.16876344182,90.732
5649.745078862296,72.586
5656.438394349752,-2.592
5663.009664370256,93.325
5669.578436568787,189.242
5676.264076103718,-23.331
5682.827811578958,189.242
5689.3890535265455,69.994
5696.067030305661,132.21
5702.623244186747,77.771
5709.176968824671,230.719
5715.847296014435,36.293
5722.39600122282,7.777
5728.942221462719,-18.146
5735.4859581482815,77.771
5742.146121627004,20.739
5748.684850350968,132.21
5755.221099782248,64.809
5761.754871330697,106.286
5768.404894310675,25.924
5774.933669330552,-44.07
5781.459970716278,-36.293
5787.983799873429,-5.185
5794.505158206499,90.732
5801.142549523138,23.331
5807.658925557145,111.471
5814.172834999641,-88.14
5820.684279250832,85.548
5827.193259709879,186.649
5833.699777774898,67.401
5840.203834842934,59.624
5846.7054323099655,25.924
5853.204571570954,-5.185
5859.701254019747,261.828
5866.195481049195,114.064
5872.687254051074,-49.255
5879.176574416102,-95.917
5885.663443533944,127.025
5892.14786279323,155.541
5898.629833581537,-57.032
5905.109357285379,57.032
5911.586435290243,274.789
5918.061068980562,15.554
5924.533259739736,-59.624
5931.003008950094,-15.554
5937.470317992949,41.478
5943.935188248557,-67.401
5950.397621096134,98.509
5956.857617913869,-10.369
5963.315180078898,77.771
5969.7703089673305,59.624
5976.105705888956,44.07
5982.556016527509,54.439
5989.003897986593,168.503
5995.449351638199,-80.363
6001.8923788532775,-44.07
6008.215900781644,-28.516
6014.654123287393,-2.592
6021.089923438405,168.503
6027.523302601519,-49.255
6033.954262142564,-5.185
6040.265942433929,-298.121
6046.692110755517,95.917
6053.115863521547,-5.185
6059.420472023492,44.07
6065.839441620141,158.134
6072.255999718647,90.732
6078.553548309683,10.369
6084.965331270854,28.516
6091.374706782226,145.172
6097.665207314269,36.293
6104.06981570238,176.28
6110.472020679961,0.0
6116.755484978421,197.019
6123.152930828903,80.363
6129.431725134898,-184.057
6135.824417162912,41.478
6142.098546680769,121.841
6148.486490183052,12.962
6154.872039648391,-18.146
6161.139160374798,23.331
6167.519969269015,7.777
6173.782438208022,-225.535
6180.158511808193,90.732
6186.416334137088,51.847
6192.787677712448,62.216
6199.040858600842,64.809
6205.291741972564,54.439
6211.656022022646,-33.701
6217.902271670246,12.962
6224.261834810408,28.516
6230.503455884398,-88.14
6236.742785809074,-25.924
6243.095304999864,82.955
6249.330014038809,85.548
6255.677829386121,38.885
6261.907922670827,-54.439
6268.1357311500615,114.064
6274.476522051649,0.0
6280.699722436162,101.102
6286.920641805642,93.325
6293.139281413962,-197.019
6299.470738832184,-10.369
6305.684780516531,256.643
6311.896546218988,75.178
6318.106037189755,10.369
6324.428181717434,62.216
6330.633084905065,88.14
6336.835717129172,137.395
6343.036079636258,33.701
6349.234173671932,-41.478
6355.544716640681,31.108
6361.738235515753,-62.216
6367.929489673777,-7.777
6374.118480356665,77.771
6380.305208805476,5.185
6386.489676260331,15.554
6392.671883960451,199.611
6398.851833144166,178.872
6405.143905470883,116.656
6411.319299566196,36.293
6417.492438877496,80.363
6423.663324639478,0.0
6429.831958085924,7.777
6435.998340449718,-25.924
6442.162472962846,69.994
6448.324356856407,67.401
6454.483993360576,106.286
6460.641383704664,241.089
6466.79652911704,-114.064
6472.949430825232,-54.439
6479.100090055821,2.592
6485.248508034543,-90.732
6491.280888225534,12.962
6497.424868822251,116.656
6503.5666118162335,171.095
6509.706118429633,59.624
6515.843389883739,72.586
6521.978427398899,59.624
6528.111232194642,64.809
6534.241805489546,33.701
6540.256680928833,-64.809
6546.382836142315,88.14
6552.506763482961,0.0
6558.628464165849,33.701
6564.747939405184,-116.656
6570.751928194237,103.694
6576.866997341494,-38.885
6582.979844660076,132.21
6589.090471360658,184.057
6595.0857801617385,98.509
6601.192010321647,-2.592
6607.296023467985,33.701
6613.39782080795,147.764
6619.384468430493,2.592
6625.481878753591,85.548
6631.577076864334,-111.471
6637.5572509579,-7.777
6643.64806916556,225.535
6649.623946782151,165.911
6655.71038980603,-108.879
6661.794626582923,-67.401
6667.764048126817,25.924
6673.843916808139,178.872
6679.809053455574,10.369
6685.884558743659,-36.293
6691.957863728712,5.185
6697.916561697035,-41.478
6703.985510351609,98.509
6709.939934962422,-171.095
6716.004531971987,-38.885
6721.954687820689,129.618
6728.014937863976,-10.369
6733.960829539363,90.732
6739.904610751524,88.14
6745.95836937274,145.172
6751.897893261092,228.127
6757.947316561804,28.516
6763.8825876987685,165.911
6769.927680334353,176.28
6775.858703285812,-108.879
6781.787623684751,-5.185
6787.826249230238,95.917
6793.750928258974,44.07
6799.673508107371,23.331
6805.705676935038,25.924
6811.624022213946,36.293
6817.540271677499,-85.548
6823.5659941374615,-505.509
6829.478015817709,124.433
6835.387945040406,163.318
6841.407231460638,103.694
6847.312939671727,139.987
6853.216558775894,-7.777
6859.118089881435,77.771
6865.017534095896,-20.739
6871.026143398485,33.701
6876.921377827312,95.917
6882.814528703813,181.465
6888.705597132364,77.771
6894.594584216582,23.331
6900.592544785228,33.701
6906.477333270021,95.917
6912.360043737404,134.802
6918.240677287846,222.942
6924.119235021055,119.248
6929.995718035963,124.433
6935.870127430717,168.503
6941.742464302697,44.07
6947.6127297485,134.802
6953.480924863958,28.516
6959.347050744116,103.694
6965.21110848328,-676.604
6971.073099174937,62.216
6976.93302391185,127.025
6982.79088378598,134.802
6988.64667988853,155.541
6994.500413309928,59.624
7000.35208513985,-2444.588
7006.201696467178,54.439
7012.049248380063,134.802
7017.894741965851,-10.369
7023.738178311156,69.994
7029.579558501813,-36.293
7035.418883622879,261.828
7041.2561547586665,59.624
7047.091372992727,116.656
7052.924539407839,-44.07
7058.645653010426,23.331
7064.474757695687,173.688
7070.301813785409,-12.962
7076.126822359336,-20.739
7081.949784496486,59.624
7087.660891581778,114.064
7093.479802640664,7.777
7099.296670474898,186.649
7105.111496160462,-51.847
7110.814624476749,-2.592
7116.625407570507,31.108
7122.434151718757,69.994
7128.2408579944895,-82.955
7133.936024250346,28.516
7139.73869639702,-10.369
7145.53933386541,80.363
7151.22854892195,72.586
7157.025158582874,139.987
7162.819736753059,152.949
7168.503009933542,88.14
7174.293566604632,28.516
7180.082094965896,28.516
7185.759435574095,-88.14
7191.54394873148,51.847
7197.2173519438,295.528
7202.997854073568,31.108
7208.667323984642,-75.178
7214.443819257263,18.146
7220.109359956041,72.586
7225.881852536215,-44.07
7231.54346810597,5.185
7237.311962152613,121.841
7242.969656670975,-77.771
7248.734156337254,54.439
7254.387933876205,90.732
7260.148443309525,38.885
7265.798307935409,-12.962
7271.554831277448,-178.872
7277.20078705097,93.325
7282.953328437674,62.216
7288.59537941395,-28.516
7294.235498085545,49.255
7299.982093204053,-23.331
7305.618313131272,18.146
7311.252603748333,69.994
7316.993261813666,176.28
7322.623659726734,-62.216
7328.252131317968,101.102
7333.9868615261075,101.102
7339.611446441268,57.032
7345.234108016753,75.178
7350.962919544712,-147.764
7356.581700459581,25.924
7362.198561010817,-23.331
7367.813502182726,116.656
7373.426524958988,5.185
7379.145517410223,-209.981
7384.7546694986595,500.324
7390.361906157261,-5.185
7395.967228366993,471.808
7401.570637108154,217.758
7407.279835705631,2.592
7412.879383697611,129.618
7418.477021176703,-2.592
7424.072749120482,38.885
7429.666568505905,62.216
7435.258480309247,44.07
7440.848485506111,-28.516
7446.436585071431,191.834
7452.022779979503,5.185
7457.607071203925,49.255
7463.296794702215,-69.994
7468.877244915177,85.548
7474.455794380043,-57.032
7480.032444067743,184.057
7485.607194948596,44.07
7491.18004799222,-41.478
7496.751004167574,59.624
7502.2129850032,-25.924
7507.7801867781745,62.216
7513.345494569261,49.255
7518.908909342786,12.962
7524.470432064445,121.841
7530.03006369928,-176.28
7535.587805211653,44.07
7541.1436575652915,85.548
7546.697621723266,124.433
7552.249698647978,-15.554
7557.693172648,49.255
7563.241514237732,51.847
7568.787971459049,51.847
7574.332545271769,77.771
7579.87523663506,38.885
7585.416046507413,155.541
7590.848475703144,46.662
7596.385561603231,88.14
7601.920768865631,212.573
7607.454098446255,103.694
7612.879194899509,-64.809
7618.4088080453,44.07
7623.936546354853,-88.14
7629.462410781522,88.14
7634.880189328982,114.064
7640.402344837916,-12.962
7645.9226293018255,88.14
7651.334937948188,106.286
7656.851519109852,-25.924
7662.260197498763,106.286
7667.773079083498,59.624
7673.284094334183,116.656
7678.687316594296,-31.108
7684.194637864675,38.885
7689.7000956236625,-101.102
7695.097870006797,139.987
7700.599639370841,95.917
7705.993798107356,199.611
7711.491882781789,132.21
7716.882429503323,129.618
7722.376833188511,15.554
7727.763771521855,-199.611
7733.254497913214,127.025
7738.637831480286,31.108
7744.124884268305,-67.401
7749.504616686187,-23.331
7754.987999556393,44.07
7760.364134437317,-5.185
7765.738489349154,119.248
7771.216392021717,75.178
7776.587154788423,-59.624
7782.061396717661,10.369
7787.428570939446,-57.032
7792.793969640064,49.255
7798.262745065967,-69.994
7803.624560595526,134.802
7808.984603262106,28.516
7814.447920368751,18.146
7819.804385227417,-25.924
7825.159079875983,44.07
7830.616946831127,-31.108
7835.968069024231,152.949
7841.317423654822,142.579
7846.665011598543,31.108
7852.115636126822,152.949
7857.459658723532,12.962
7862.801917273948,51.847
7868.142412651388,-88.14
7873.481145728587,-88.14
7878.922746278997,28.516
7884.257922859626,-33.701
7889.59133977185,64.809
7894.922997886111,77.771
7900.252898072242,-2.592
7905.581041199541,352.56
7910.907428136696,20.739
7916.336446752692,-49.255
7921.65928952102,80.363
7926.980378718883,-49.255
7932.29971521271,-80.363
7937.617299868325,-28.516
7942.933133550996,38.885
7948.247217125423,220.35
7953.559551455743,20.739
7958.870137405502,80.363
7964.178975837705,228.127
7969.486067614758,-44.07
7974.791413598527,-119.248
7980.0950146503055,-7.777
7985.396871630804,12.962
7990.696985400187,181.465
7995.995356818043,85.548
8001.291986743403,2.592
8006.586876034729,-18.146
8011.880025549901,241.089
8017.067699705829,-36.293
8022.357406311574,-12.962
8027.645375694708,-12.962
8032.931608710882,46.662
8038.216106215201,500.324
8043.498869062179,2.592
8048.779898105804,147.764
8053.955695240969,298.121
8059.233293192043,-7.777
8064.509159881611,0.0
8069.783296161415,72.586
8074.952338977277,82.955
8080.223050878609,7.777
8085.492034905405,-31.108
8090.759291907168,41.478
8095.921593616502,-15.554
8101.185432936367,-75.178
8106.447547759821,75.178
8111.604810570996,7.777
8116.863512715307,-15.554
8122.120492886879,-44.07
8127.272724173963,54.439
8132.526296659391,-51.847
8137.778149690843,38.885
8142.925356813517,-18.146
8148.173807142077,10.369
8153.4205405305,-36.293
8158.562730834117,-2.592
8163.806066493191,-64.809
8168.944927307508,212.573
8174.184868536668,72.586
8179.32040309432,222.942
8184.55695318873,20.739
8189.689164718173,-72.586
8194.922326968728,67.401
8200.051218694258,44.07
8205.280996387602,-5.185
8210.406571529322,-31.108
8215.632967947844,28.516
8220.7552297217,145.172
8225.978248143558,-12.962
8231.097199761349,75.178
8236.316843460441,-57.032
8241.43248812982,114.064
8246.546496881761,-111.471
8251.76110130029,152.949
8256.871807891675,51.847
8261.98088093357,54.439
8267.190453365733,-5.185
8272.296229025691,62.216
8277.400373499535,31.108
8282.604921225458,-46.662
8287.705773086778,62.216
8292.804996120794,-137.395
8298.004526406577,-18.146
8303.100461588281,-194.426
8308.194770296956,-82.955
8313.28745331115,-15.554
8318.48031600209,85.548
8323.569717486189,-88.14
8328.657495624051,67.401
8333.743651192239,95.917
8338.828184966831,150.356
8344.012739449463,15.554
8349.093999566121,77.771
8354.17364022991,-41.478
8359.251662214898,10.369
8364.328066294685,-7.777
8369.402853242376,-215.165
8374.476023830553,-127.025
8379.547578831349,15.554
8384.718901354245,-33.701
8389.787195221597,-38.885
8394.853875830348,-51.847
8399.91894395064,98.509
8404.98240035212,-46.662
8410.044245803958,-28.516
8415.104481074803,235.904
8420.163106932847,57.032
8425.220124145773,-18.146
8430.275533480788,134.802
8435.32933570461,132.21
8440.381531583458,0.0
8445.432121883085,-7.777
8450.48110736873,67.401
8455.528488805172,-20.739
8460.473367100913,-103.694
8465.51757477424,80.363
8470.560180674485,7.777
8475.601185564497,2.592
8480.64059020661,15.554
8485.67839536271,-147.764
8490.714601794163,62.216
8495.749210261878,-85.548
8500.681576948675,134.802
8505.713023691114,-163.318
8510.742874734438,69.994
8515.771130837642,-90.732
8520.797792759218,163.318
8525.722375497866,-15.554
8530.745883175656,-28.516
8535.7677989293,-31.108
8540.788123515384,-90.732
8545.706498587671,-62.216
8550.723674892208,119.248
8555.739262280982,49.255
8560.652997083213,124.433
8565.665440644778,-10.369
8570.676297538128,-220.35
8575.585398634048,31.108
8580.593116146138,77.771
8585.599249233324,-7.777
8590.503723174297,10.369
8595.506721317797,31.108
8600.508137275468,168.503
8605.40799060051,33.701
8610.406276043708,67.401
8615.303062904772,-25.924
8620.298220771765,-90.732
8625.191944046568,5.185
8630.18397727198,171.095
8635.074639834631,23.331
8640.063551349394,59.624
8644.951156070434,-95.917
8649.936948801806,-75.178
8654.821498548154,-72.586
8659.804175419777,36.293
8664.685673054784,2.592
8669.665236986599,-344.783
8674.543685370048,-7.777
8679.520139278378,-12.962
8684.395541266465,15.554
8689.2694364983,59.624
8694.241246509358,-36.293
8699.112099609058,-176.28
8703.981448060618,121.841
8708.948620671701,46.662
8713.81493124642,-64.809
8718.779005433622,25.924
8723.642280973501,-59.624
8728.504055374753,93.325
8733.364329332315,261.828
8738.32224658698,10.369
8743.179491154478,-28.516
8748.035237374625,-51.847
8752.889485940628,25.924
8757.8412577103,7.777
8762.692482517024,168.503
8767.542211760752,82.955
8772.39044613298,-360.337
8777.336083836857,10.369
8782.18130006664,-69.994
8787.02502351089,0.0
8791.867254859393,217.758
8796.707994801498,33.701
8801.547244026118,-12.962
8806.385003221756,116.656
8811.319956958603,54.439
8816.154707786565,523.655
8820.987970662514,127.025
8825.819746273257,129.618
8830.650035305174,-5.185
8835.478838444196,127.025
8840.306156375878,25.924
8845.131989785303,-23.331
8849.956339357173,137.395
8854.779205775758,-160.726
8859.60058972489,-36.293
8864.420491888006,88.14
8869.238912948098,-54.439
8874.055853587757,-28.516
8878.871314489159,-36.293
8883.685296334032,15.554
8888.497799803714,127.025
8893.308825579123,69.994
8898.118374340735,23.331
8902.926446768637,62.216
8907.634964476681,-147.764
8912.440116370435,80.363
8917.243793954342,114.064
8922.045997906822,10.369
8926.846728905857,18.146
8931.645987629043,155.541
8936.443774753548,308.49
8941.142221650607,25.924
8945.937097605834,25.924
8950.73050397759,-95.917
8955.522441441404,-49.255
8960.215160665939,-121.841
8965.004192282166,-59.624
8969.791757000756,67.401
8974.577855495572,98.509
8979.26485751475,-57.032
8984.048055470721,51.847
8988.829789208343,-147.764
8993.51251749025,-20.739
8998.291354655303,18.146
9003.068729603765,5.185
9007.747189991118,88.14
9012.521672326067,-298.121
9017.294694442531,-51.847
9021.968892767374,-10.369
9026.739026222178,7.777
9031.41039612206,-95.917
9036.17764353675,-67.401
9040.943434050514,23.331
9045.610551571128,25.924
9050.373459984672,-31.108
9055.037755503963,222.942
9059.797784430888,-5.185
9064.45926050758,-62.216
9069.216412558366,-2.592
9073.87507174812,0.0
9078.629349530078,80.363
9083.285194385431,124.433
9088.036600502714,158.134
9092.689633573158,264.42
9097.438170626783,-18.146
9102.088394458704,181.465
9106.73722909284,72.586
9111.481482183284,-77.771
9116.12751137963,-12.962
9120.868901881862,-18.146
9125.512128179163,-20.739
9130.153968412898,-2.592
9134.891084617178,-246.273
9139.53012574118,-103.694
9144.167782675046,142.579
9148.9006303586,85.548
9153.535491965213,321.452
9158.168971251744,59.624
9162.801068836525,38.885
9167.528243916331,0.0
9172.157551197888,-36.293
9176.785478643267,189.242
9181.412026869286,28.516
9186.13353953768,62.216
9190.757302472506,33.701
9195.37968804908,77.771
9200.000696882766,-2.592
9204.620329588544,51.847
9209.334785850184,15.554
9213.951639506451,44.07
9218.567118890363,28.516
9223.181224615444,-98.509
9227.79395729483,59.624
9232.40531754132,-152.949
9237.015305967328,51.847
9241.623923184923,88.14
9246.23116980579,147.764
9250.932987640888,-165.911
9255.537466379788,62.216
9260.140576367572,67.401
9264.742318214474,-98.509
9269.342692530376,204.796
9273.941699924766,-285.159
9278.539341006806,106.286
9283.135616385269,72.586
9287.730526668583,-137.395
9292.324072464791,-267.012
9296.91625438162,75.178
9301.411444872112,-101.102
9306.00092923447,15.554
9310.589051525738,15.554
9315.175812352172,-31.108
9319.761212319692,20.739
9324.345252033823,25.924
9328.927932099774,-209.981
9333.509253122353,-15.554
9338.08921570604,28.516
9342.572446701386,18.146
9347.149722488744,-129.618
9351.7256416359,62.216
9356.300204745894,-36.293
9360.873412421412,-88.14
9365.350032145325,38.885
9369.920558965528,-31.108
9374.489732144635,15.554
9379.05755228394,95.917
9383.528899030936,-15.554
9388.09404305015,-15.554
9392.657835818722,12.962
9397.125240831178,116.656
9401.6863610176,-72.586
9406.246131739394,64.809
9410.80455359534,-33.701
9415.266701898625,-57.032
9419.822455888205,101.102
9424.281993052333,106.286
9428.835081516963,-18.146
9433.38682407955,-103.694
9437.84243511156,18.146
9442.391515668474,67.401
9446.84452129656,-51.847
9451.390942182352,59.624
9455.93602012123,64.809
9460.385108237591,41.478
9464.927530014324,64.809
9469.374018445214,-57.032
9473.913786387537,-129.618
9478.35767741084,46.662
9482.894793843763,15.554
9487.33608973474,-44.07
9491.87055698055,-246.273
9496.30926001177,-10.369
9500.74668109923,-44.07
9505.277192831463,69.994
9509.71202445114,-82.955
9514.23989277796,64.809
9518.672137195834,7.777
9523.103102466685,77.771
9527.62702390948,7.777
9532.05540536064,-145.172
9536.57668916292,62.216
9541.002489053764,-163.318
9545.42701258622,-18.146
9549.850260312329,-95.917
9554.36630345335,-145.172
9558.78697410632,-28.516
9563.206370618926,12.962
9567.718482324255,31.108
9572.13530512818,199.611
9576.550855454823,-49.255
9580.965133854,-127.025
9585.47202083257,62.216
9589.883729992052,31.108
9594.294168883298,-64.809
9598.703338054846,72.586
9603.111238054931,72.586
9607.611613766734,18.146
9612.016950092931,10.369
9616.421018902103,150.356
9620.823820741218,-220.35
9625.225356156909,114.064
9629.625625695517,28.516
9634.02462990307,-261.828
9638.422369325252,75.178
9642.81884450748,-160.726
9647.21405599481,230.719
9651.701478874824,-15.554
9656.094137748323,-106.286
9660.485534571855,41.478
9664.875669889248,-18.146
9669.264544244,-33.701
9673.65215817932,-2.592
9678.03851223808,-108.879
9682.423606962846,75.178
9686.807442895892,-23.331
9691.19002057915,64.809
9695.478134071804,12.962
9699.858223622705,-15.554
9704.23705653629,98.509
9708.614633353289,-23.331
9712.990954614088,12.962
9717.36602085878,57.032
9721.739832627154,106.286
9726.112390458671,-137.395
9730.483694892511,-51.847
9734.760779687776,-41.478
9739.129605581998,-57.032
9743.497179682729,25.924
9747.863502527893,-98.509
9752.228574655115,38.885
9756.499562339395,-15.554
9760.862161224974,69.994
9765.223510992222,72.586
9769.583612177565,-57.032
9773.849736751828,85.548
9778.207368918504,69.994
9782.563754099236,-57.032
9786.918892829211,-163.318
9791.18016259473,-46.662
9795.532836519418,36.293
9799.884265585692,33.701
9804.14190615754,-31.108
9808.490873566669,20.739
9812.83859770701,-51.847
9817.09261371952,-158.134
9821.437879345483,-49.255
9825.689490172908,15.554
9830.032299369228,-197.019
9834.373867936378,-33.701
9838.621861899856,-222.942
9842.960977171238,10.369
9847.206571054325,44.07
9851.543235108787,75.178
9855.786430944943,101.102
9860.12064585897,124.433
9864.361445679362,121.841
9868.693213527116,31.108
9872.931619360628,59.624
9877.26094221391,-114.064
9881.49695608711,-2.592
9885.823836015392,25.924
9890.057459952584,-445.885
9894.289902518456,-59.624
9898.613135046206,176.28
9902.843190697367,-59.624
9907.163985452502,36.293
9911.391656207565,-59.624
9915.61814808206,-69.994
9919.935303126713,-80.363
9924.15941311792,72.586
9928.38234571751,158.134
9932.695865648708,82.955
9936.91641937277,46.662
9941.135797191648,134.802
9945.445686598703,75.178
9949.662688544726,-132.21
9953.878516069532,-67.401
9958.09316966365,7.777
9962.398234183594,-108.879
9966.61051589339,129.618
9970.821625153134,-98.509
9975.031562452265,31.108
9979.240328279942,-82.955
9983.53937957713,191.834
9987.745778488254,12.962
9991.95100740443,10.369
9996.155066813732,7.777
10000.357957203963,-106.286
10004.55967906266,98.509
10008.760232877092,-36.293
10013.050897176752,54.439
10017.249090997648,23.331
10021.446118245014,93.325
10025.641979405023,54.439
10029.83667496358,-57.032
10034.03020540632,145.172
10038.222571218605,-46.662
10042.413772885537,77.771
10046.603810891938,256.643
10050.79268572236,-51.847
10054.980397861098,-98.509
10059.16694779218,-2.592
10063.352335999334,139.987
10067.536562966066,-41.478
10071.719629175575,20.739
10075.90153511081,-101.102
10080.082281254454,-23.331
10084.26186808891,28.516
10088.440296096323,-51.847
10092.52676786215,54.439
10096.702904826674,246.273
10100.877884398516,-44.07
10105.051707058765,292.936
10109.224373288234,-184.057
10113.395883567471,155.541
10117.475590772649,-62.216
10121.64481569536,-114.064
10125.812886097472,-18.146
10129.979802458443,-33.701
10134.145565257517,-41.478
10138.219652237512,-20.739
10142.383134400929,-46.662
10146.545464428116,-33.701
10150.706642797257,-2.592
10154.776246850048,-38.885
10158.935148346747,-15.554
10163.092899607942,-12.962
10167.159152430871,31.108
10171.314629631466,-72.586
10175.468958016776,-46.662
10179.531863747628,-36.293
10183.683920879565,41.478
10187.834830614069,-44.07
10191.894393383842,-15.554
10196.043034667582,0.0
10200.190529969435,-88.14
10204.246753902304,-28.516
10208.391983551395,62.216
10212.44599199288,-90.732
10216.588957845182,7.777
10220.640752609928,-18.146
10224.781456519388,93.325
10228.831039420063,-132.21
10232.969483238625,31.108
10237.016856085897,46.662
10241.15304166346,31.108
10245.19820626604,2.592
10249.332135450502,101.102
10253.375093615126,-98.509
10257.506768252357,44.07
10261.547521783785,-69.994
10265.58718577827,132.21
10269.715494418666,57.032
10273.752956473523,10.369
10277.87901516247,-49.255
10281.91427707755,15.554
10285.948451675904,-41.478
10290.0711512271,-119.248
10294.10312837192,-18.146
10298.13401952729,90.732
10302.253364041218,49.255
10306.282060424935,-90.732
10310.309672144327,-15.554
10314.425665714796,-28.516
10318.451085340042,-36.293
10322.475421623927,-51.847
10326.498675003731,139.987
10330.610215200984,132.21
10334.631280043344,-25.924
10338.651263301725,46.662
10342.670165412448,41.478
10346.687986811625,51.847
10350.704727935088,0.0
10354.80961387438,31.108
10358.824171771252,82.955
10362.837650708272,-38.885
10366.850051120337,-173.688
10370.86137344214,72.586
10374.871618108127,0.0
10378.880785552512,41.478
10382.888876209276,-230.719
10386.984923052532,-31.108
10390.990837530662,111.471
10394.995676531347,-49.255
10398.999440487634,-119.248
10403.00212983234,7.777
10407.003744998048,-209.981
10411.004286417105,59.624
10415.003754521616,20.739
10419.002149743475,-15.554
10422.999472514348,-59.624
10426.995723265634,-93.325
10430.990902428544,69.994
10434.985010434026,49.255
10438.889325180557,596.241
10442.881315942828,116.656
10446.872236829608,-5.185
10450.86208827093,15.554
10454.85087069661,18.146
10458.838584536235,-44.07
10462.82523021915,12.962
10466.810808174472,-108.879
10470.706785742112,-12.962
10474.690253232264,-23.331
10478.672654271297,64.809
10482.653989287404,64.809
10486.634258708573,62.216
10490.525047770485,62.216
10494.50321094102,46.662
10498.480309789697,-7.777
10502.45634474356,-62.216
10506.342995080442,155.541
10510.316927143493,-209.981
10514.2897965821,-36.293
10518.261603822417,-235.904
10522.144122034457,64.809
10526.113829736623,-28.516
10530.082476508169,-33.701
10533.961905709137,25.924
10537.92845544769,46.662
10541.89394552126,12.962
10545.770289396216,-18.146
10549.733684937964,49.255
10553.607981637546,-28.516
10557.569284306495,-57.032
10561.52952941227,59.624
10565.400746905443,64.809
10569.35890163298,-20.739
10573.22807600992,-10.369
10577.184142013864,-5.185
10581.05127489159,-10.369
10585.005253824836,-59.624
10588.87034681866,-20.739
10592.822240332363,147.764
10596.685295055897,101.102
10600.635104799476,-46.662
10604.496122864624,41.478
10608.443850485746,-111.471
10612.302833502728,-18.146
10616.160811022752,-25.924
10620.10543022464,51.847
10623.9613750996,-67.401
10627.903916281392,-64.809
10631.757830117263,-189.242
10635.61074043666,150.356
10639.550179321655,-41.478
10643.401060998756,0.0
10647.250940343372,-82.955
10651.187280591832,88.14
10655.035133687184,51.847
10658.881985632182,38.885
10662.815230898605,12.962
10666.660058983602,-72.586
10670.50388709854,5.185
10674.346715633475,59.624
10678.275847672114,-2.592
10682.116655520924,12.962
10685.956464967534,36.293
10689.795276401208,-173.688
10693.633090210977,-28.516
10697.557095575656,114.064
10701.39289265285,77.771
10705.227693280882,-352.56
10709.061497847986,-139.987
10712.894306742182,10.369
10716.726120351308,41.478
10720.55693906298,64.809
10724.386763264632,-88.14
10728.302600658342,44.07
10732.130414421008,132.21
10735.957234843503,-95.917
10739.783062312445,-225.535
10743.60789721425,33.701
10747.431739935131,-103.694
10751.254590861114,10.369
10755.076450378,-295.528
10758.897318871408,-145.172
10762.717196726757,-285.159
10766.536084329256,2.592
10770.353982063916,10.369
10774.170890315563,-95.917
10777.98680946881,31.108
10781.801739908076,209.981
10785.615682017564,-38.885
10789.341989100834,18.146
10793.153978142976,-98.509
10796.964979998098,-329.229
10800.774995049622,-498.416
10804.58402368077,-576.438
10808.392066274577,-580.305
10812.199123213884,-527.041
10816.005194881312,-433.656
10819.723813349112,-317.169
10823.52793799081,-194.598
10827.331078498672,-82.955
10831.133235254529,-5.185
10834.848029253728,-5.185
10838.64824198676,-121.841
10842.447472103491,12.962
10846.24571998498,-101.102
10849.956695412544,-121.841
10853.753002267928,18.146
10857.548328021428,-103.694
10861.342673053316,-23.331
10865.049835794096,12.962
10868.842242790466,51.847
10872.63367019626,28.516
10876.337982712816,-23.331
10880.12747431772,-36.293
10883.82989575329,-134.802
10887.617453039476,114.064
10891.404032613404,-62.216
10895.103609289945,-18.146
10898.88825677408,-15.554
10902.585945994537,20.739
10906.368662867266,41.478
10910.150403901262,36.293
10913.845253813895,-114.064
10917.62506645972,-287.751
10921.318032531915,-36.293
10925.095918264182,-41.478
10928.787001936307,-36.293
10932.562962228116,-28.516
10936.252164939066,2.592
10939.940438510435,69.994
10943.713524449233,36.293
10947.399919206764,-46.662
10951.171083372872,103.694
10954.855600751816,-41.478
10958.62484461311,-88.14
10962.307486047235,67.401
10965.989200819247,-85.548
10969.755577991731,46.662
10973.435418958636,-82.955
10977.114334320191,25.924
10980.877848072992,-15.554
10984.554891765896,-93.325
10988.231010908596,303.305
10991.991664505884,88.14
10995.665914113146,-158.134
10999.33924022374,25.924
11003.011643185791,-49.255
11006.768495629847,-15.554
11010.439031890255,25.924
11014.108646053544,-59.624
11017.777338467138,31.108
11021.530395518184,-10.369
11025.197224058184,98.509
11028.863131897786,72.586
11032.528119383707,-204.796
11036.192186862492,90.732
11039.855334680517,20.739
11043.602720353196,33.701
11047.264008520897,20.739
11050.924378073953,41.478
11054.58382935806,-207.388
11058.242362718707,-139.987
11061.899978501227,-44.07
11065.556677050785,90.732
11069.21245871235,62.216
11072.867323830738,-25.924
11076.521272750586,-31.108
11080.174305816368,72.586
11083.826423372368,75.178
11087.477625762698,59.624
11091.127913331318,38.885
11094.777286422,-116.656
11098.425745378345,-207.388
11102.073290543767,321.452
11105.719922261547,-44.07
11109.36564087477,-72.586
11113.010446726335,-98.509
11116.654340159006,64.809
11120.29732151534,176.28
11123.93939113774,18.146
11127.580549368427,-51.847
11131.22079654947,-85.548
11134.77550763161,12.962
11138.413954906267,62.216
11142.051492148485,114.064
11145.688119699626,41.478
11149.323837900913,33.701
11152.958647093375,69.994
11156.508048620988,-256.643
11160.141061938251,147.764
11163.773167260852,-145.172
11167.40436492916,88.14
11170.950240228543,36.293
11174.579644697213,31.108
11178.208142523734,-189.242
11181.751381744987,38.885
11185.378088371155,-59.624
11189.003889365817,-25.924
11192.628785068173,184.057
11196.16850723805,150.356
11199.79161440632,-31.108
11203.413817290922,-10.369
11206.950910239968,-62.216
11210.571326582844,54.439
11214.10667518314,67.401
11217.725306305692,12.962
11221.343034819707,-108.879
11224.875759069631,18.146
11228.49170435076,57.032
11232.022687482247,20.739
11235.636850848638,-62.216
11239.166094148528,-15.554
11242.778476917028,-25.924
11246.305981670925,0.0
11249.91658515709,23.331
11253.442352649325,15.554
11257.05117816741,98.509
11260.575209681025,10.369
11264.182258544,25.924
11267.704555360804,44.07
11271.309828880325,51.847
11274.83039228086,41.478
11278.350099642112,-7.777
11281.952723030843,106.286
11285.470698886753,-69.994
11288.987819646914,-57.032
11292.587795825824,44.07
11296.103186988752,-23.331
11299.70139304264,51.847
11303.215055883851,-72.586
11306.727865201254,75.178
11310.23982130582,103.694
11313.834511810855,-36.293
11317.34474212601,127.025
11320.8541201677,44.07
11324.446172200132,114.064
11327.953826352135,-23.331
11331.460629168672,12.962
11334.96658095964,-254.051
11338.471682034791,-31.108
11342.059356881087,-49.255
11345.562737216636,23.331
11349.06526777208,147.764
11352.566948856567,85.548
11356.067780779093,-23.331
11359.56776384851,-38.885
11363.1502007606,36.293
11366.648466857394,51.847
11370.145885034064,36.293
11373.642455598843,15.554
11377.138178859836,44.07
11380.633055125,204.796
11384.1270847021,127.025
11387.620267898808,-23.331
11391.112605022612,103.694
11394.60409638087,150.356
11398.094742280777,-20.739
11401.584543029392,-127.025
11405.073498933603,168.503
11408.561610300185,103.694
11412.048877435727,101.102
11415.5353006467,-41.478
11419.020880239405,49.255
11422.505616520008,88.14
11425.989509794525,2.592
11429.472560368817,-28.516
11432.954768548592,103.694
11436.43613463944,106.286
11439.916658946764,18.146
11443.313501961433,-59.624
11446.79236364179,23.331
11450.270384446749,101.102
11453.74756468115,-12.962
11457.22390464968,-28.516
11460.699404656869,54.439
11464.091344754375,-145.172
11467.565185732994,90.732
11471.038187655771,10.369
11474.51035082668,90.732
11477.981675549512,-41.478
11481.369541233144,0.0
11484.839209915755,-95.917
11488.30804105362,207.388
11491.693473394258,-36.293
11495.16065027576,-18.146
11498.626990514544,75.178
11502.092494413417,82.955
11505.474679896604,-18.146
11508.938531918346,-101.102
11512.401548500471,-46.662
11515.78130675673,111.471
11519.242673239612,-15.554
11522.620821260369,-2.592
11526.080538823127,0.0
11529.5394224415,5.185
11532.915147579475,62.216
11536.372384051368,163.318
11539.74650183491,-38.885
11543.202092336618,-15.554
11546.574603913472,5.185
11550.028549620163,38.885
11553.399456136987,54.439
11556.85175822272,25.924
11560.221060825072,-121.841
11563.67172046279,46.662
11567.039420295116,-46.662
11570.488438656655,-15.554
11573.854536862347,-62.216
11577.301915118398,-98.509
11580.666412839755,51.847
11584.030120381583,-12.962
11587.475050538147,-38.885
11590.837159300165,189.242
11594.280452266124,-59.624
11597.64096338792,-98.509
11601.000685734118,207.388
11604.441534950183,158.134
11607.79966135666,15.554
11611.156999826935,62.216
11614.59540789372,-38.885
11617.951152122365,163.318
11621.306109253032,-75.178
11624.66027956261,44.07
11628.09544335218,-23.331
11631.44802167594,-75.178
11634.799814015252,-20.739
11638.15082064648,75.178
11641.58274474832,-28.516
11644.932161645294,212.573
11648.280793669244,5.185
11651.62864109602,-23.331
11654.975704201344,-5.185
11658.403590030808,51.847
11661.749066206958,2.592
11665.093758894744,10.369
11668.43766836938,-41.478
11671.780794905935,54.439
11675.12313877933,51.847
11678.4647002644,-2.592
11681.805479635816,-18.146
11685.145477168146,41.478
11688.484693135812,23.331
11691.904543291126,41.478
11695.24217790648,-165.911
11698.579031786354,-320.314
11701.915105204676,-359.848
11705.25039843522,-316.414
11708.584911751648,-221.924
11711.918645427471,-108.277
11715.251599736104,-7.385
11718.502511651865,48.848
11721.83392703817,28.516
11725.164563870054,-41.478
11728.4944224204,-2.592
11731.823502961994,-51.847
11735.15180576744,-12.962
11738.479331109273,31.108
11741.806079259855,12.962
11745.132050491462,-134.802
11748.457245076206,-38.885
11751.70058915004,46.662
11755.024250183047,-150.356
11758.34713537819,191.834
11761.669245007088,-93.325
11764.990579341233,-121.841
11768.230158619372,-38.885
11771.549962071174,57.032
11774.86899103535,49.255
11778.187245782876,25.924
11781.423821624776,-75.178
11784.740547618409,59.624
11788.05650020102,-44.07
11791.371679643096,-142.579
11794.605256223578,-75.178
11797.91890903626,-41.478
11801.231789512534,-108.879
11804.46312397414,38.885
11807.774479408556,57.032
11811.085063309589,-25.924
11814.314157983485,59.624
11817.623218427994,189.242
11820.850827315822,-10.369
11824.158365355152,165.911
11827.4651331948,54.439
11830.690506166697,-44.07
11833.995753182851,111.471
11837.219642936305,15.554
11840.52337017791,31.108
11843.745777735792,2.592
11847.047986250807,-38.885
11850.26891263506,-121.841
11853.569603470474,116.656
11856.789049702087,90.732
11860.088223903953,-142.579
11863.30619100298,-331.821
11866.603849616356,36.293
11869.820338601929,-62.216
11873.11648267094,72.586
11876.331494561222,-106.286
11879.545777396996,10.369
11882.839660941268,25.924
11886.052468201013,82.955
11889.26454715598,49.255
11892.55617250015,-23.331
11895.766777396242,44.07
11899.056892350098,-15.554
11902.26602420178,85.548
11905.474428998024,-119.248
11908.682106985869,-124.433
11911.969222890988,-163.318
11915.17542984806,90.732
11918.380910743392,-28.516
11921.66577540321,-51.847
11924.869786778698,-90.732
11928.07307283808,15.554
11931.27563382762,-25.924
11934.477469993468,-18.146
11937.758600089848,38.885
11940.95896924119,152.949
11944.158614312782,23.331
11947.35753555032,204.796
11950.55573319941,54.439
11953.753207505528,5.185
11957.029868231695,-305.898
11960.225878519712,233.312
11963.42116620667,-163.318
11966.615731537608,-51.847
11969.809574757444,-163.318
11973.002696111003,18.146
11976.195095842992,-124.433
11979.386774197992,69.994
11982.577731420495,111.471
11985.767967754866,-46.662
11988.957483445382,10.369
11992.146278736183,31.108
11995.334353871312,-44.07
11998.521709094712,-36.293
12001.708344650193,-93.325
12004.894260781464,194.426
12008.079457732136,28.516
12011.2639357457,-67.401
12014.44769506553,-44.07
12017.630735934905,38.885
12020.81305859698,75.178
12023.994663294816,0.0
12027.175550271351,235.904
12030.27622427429,103.694
12033.455694464548,-49.255
12036.634447655608,-95.917
12039.812484089987,-69.994
12042.989804010074,77.771
12046.166407658158,33.701
12049.26290681064,-114.064
12052.4380965329,-28.516
12055.612570703324,103.694
12058.786329563762,10.369
12061.880055974125,46.662
12065.052402807443,90.732
12068.224035049663,-121.841
12071.394952942192,38.885
12074.485910333004,-23.331
12077.655418093736,5.185
12080.824212222367,28.516
12083.913099633974,-2.592
12087.080485047096,-25.924
12090.247157544738,-82.955
12093.333977055809,-31.108
