Raman Shift,Intensity
217.0,0.028
218.0,0.206
219.0,0.559
220.0,1.136
221.0,1.932
222.0,2.576
223.0,2.124
224.0,1.676
225.0,1.553
226.0,1.537
227.0,1.851
228.0,2.688
229.0,3.554
230.0,3.96
231.0,4.372
232.0,4.245
233.0,3.816
234.0,3.282
235.0,2.446
236.0,1.614
237.0,1.168
238.0,0.765
239.0,0.822
240.0,1.27
241.0,1.495
242.0,0.679
243.0,0.135
244.0,0.495
245.0,1.497
246.0,1.806
247.0,1.42
248.0,1.039
249.0,0.673
250.0,0.298
251.0,0.233
252.0,0.284
253.0,0.335
254.0,0.387
255.0,0.44
256.0,0.494
257.0,0.547
258.0,0.323
259.0,0.075
260.0,0.193
261.0,0.275
262.0,0.743
263.0,0.511
264.0,0.206
265.0,0.33
266.0,0.798
267.0,1.059
268.0,0.676
269.0,0.293
270.0,0.291
271.0,0.335
272.0,0.38
273.0,0.425
274.0,0.471
275.0,0.452
276.0,0.381
277.0,0.071
278.0,0.301
279.0,0.248
280.0,0.216
281.0,0.626
282.0,0.681
283.0,0.739
284.0,1.497
285.0,2.417
286.0,4.151
287.0,6.789
288.0,9.719
289.0,14.505
290.0,19.295
291.0,20.698
292.0,21.232
293.0,19.439
294.0,14.755
295.0,10.307
296.0,7.457
297.0,4.602
298.0,3.09
299.0,1.954
300.0,1.397
301.0,1.552
302.0,1.773
303.0,2.426
304.0,3.031
305.0,2.618
306.0,1.926
307.0,1.495
308.0,1.56
309.0,1.339
310.0,0.661
311.0,0.031
312.0,0.636
313.0,1.656
314.0,1.874
315.0,1.171
316.0,0.525
317.0,0.248
318.0,0.031
319.0,0.379
320.0,0.94
321.0,0.861
322.0,0.115
323.0,0.428
324.0,0.074
325.0,0.568
326.0,1.421
327.0,2.33
328.0,3.479
329.0,4.844
330.0,6.043
331.0,6.571
332.0,7.111
333.0,6.884
334.0,6.357
335.0,5.625
336.0,4.711
337.0,3.678
338.0,2.249
339.0,0.552
340.0,0.304
341.0,0.207
342.0,0.119
343.0,0.028
344.0,0.067
345.0,0.167
346.0,0.272
347.0,0.382
348.0,0.497
349.0,0.288
350.0,1.475
351.0,3.007
352.0,5.076
353.0,7.261
354.0,10.653
355.0,14.066
356.0,19.509
357.0,25.542
358.0,32.607
359.0,40.824
360.0,49.041
361.0,57.26
362.0,65.484
363.0,65.068
364.0,63.302
365.0,57.037
366.0,47.189
367.0,37.588
368.0,28.642
369.0,19.714
370.0,14.998
371.0,10.451
372.0,7.665
373.0,5.762
374.0,4.378
375.0,4.009
376.0,3.777
377.0,4.423
378.0,4.95
379.0,5.032
380.0,4.987
381.0,4.721
382.0,4.241
383.0,3.68
384.0,2.77
385.0,1.862
386.0,1.351
387.0,0.879
388.0,0.404
389.0,0.073
390.0,0.4
391.0,0.441
392.0,0.496
393.0,0.167
394.0,0.135
395.0,0.42
396.0,0.705
397.0,1.093
398.0,1.419
399.0,1.658
400.0,1.885
401.0,2.1
402.0,1.904
403.0,1.655
404.0,1.393
405.0,1.101
406.0,0.771
407.0,0.657
408.0,0.474
409.0,0.414
410.0,0.461
411.0,0.195
412.0,0.158
413.0,0.071
414.0,0.43
415.0,0.821
416.0,0.874
417.0,0.921
418.0,0.963
419.0,1.001
420.0,1.035
421.0,1.055
422.0,1.066
423.0,1.094
424.0,1.273
425.0,2.209
426.0,3.151
427.0,4.862
428.0,6.564
429.0,8.923
430.0,11.686
431.0,14.414
432.0,17.135
433.0,19.413
434.0,16.841
435.0,14.273
436.0,11.344
437.0,8.338
438.0,5.582
439.0,3.026
440.0,1.123
441.0,0.784
442.0,0.449
443.0,0.116
444.0,0.208
445.0,0.153
446.0,0.034
447.0,0.316
448.0,0.884
449.0,1.34
450.0,1.471
451.0,1.604
452.0,1.744
453.0,1.889
454.0,2.039
455.0,2.191
456.0,1.906
457.0,1.174
458.0,0.551
459.0,0.267
460.0,0.079
461.0,0.467
462.0,1.062
463.0,2.016
464.0,3.069
465.0,4.342
466.0,5.842
467.0,7.321
468.0,8.487
469.0,9.581
470.0,8.862
471.0,8.137
472.0,6.742
473.0,5.124
474.0,3.731
475.0,2.556
476.0,1.465
477.0,0.737
478.0,0.03
479.0,0.192
480.0,0.353
481.0,0.164
482.0,0.123
483.0,0.175
484.0,0.031
485.0,0.109
486.0,0.249
487.0,0.388
488.0,0.526
489.0,0.664
490.0,0.801
491.0,0.937
492.0,0.808
493.0,0.498
494.0,0.332
495.0,0.469
496.0,0.606
497.0,0.747
498.0,0.802
499.0,0.432
500.0,0.09
501.0,0.085
502.0,0.231
503.0,0.379
504.0,0.528
505.0,0.68
506.0,0.833
507.0,0.989
508.0,1.147
509.0,1.307
510.0,1.129
511.0,0.844
512.0,0.645
513.0,0.373
514.0,0.378
515.0,1.009
516.0,1.602
517.0,1.787
518.0,1.976
519.0,1.782
520.0,1.53
521.0,1.279
522.0,1.028
523.0,0.778
524.0,0.528
525.0,0.279
526.0,0.03
527.0,0.221
528.0,0.027
529.0,0.176
530.0,0.391
531.0,0.594
532.0,0.536
533.0,0.321
534.0,0.424
535.0,0.627
536.0,0.805
537.0,0.98
538.0,1.152
539.0,0.896
540.0,0.607
541.0,0.643
542.0,0.799
543.0,0.632
544.0,0.318
545.0,0.15
546.0,0.287
547.0,0.372
548.0,0.046
549.0,0.288
550.0,0.179
551.0,0.73
552.0,0.965
553.0,1.059
554.0,1.149
555.0,1.236
556.0,1.318
557.0,1.397
558.0,1.473
559.0,1.549
560.0,1.611
561.0,1.658
562.0,1.713
563.0,1.449
564.0,1.005
565.0,0.63
566.0,0.67
567.0,0.878
568.0,0.934
569.0,0.988
570.0,1.041
571.0,1.095
572.0,1.146
573.0,1.196
574.0,1.246
575.0,1.296
576.0,1.098
577.0,0.691
578.0,0.445
579.0,0.495
580.0,0.472
581.0,0.074
582.0,0.324
583.0,0.161
584.0,0.668
585.0,0.452
586.0,0.044
587.0,0.192
588.0,0.701
589.0,1.043
590.0,1.096
591.0,1.041
592.0,0.638
593.0,0.263
594.0,0.32
595.0,0.377
596.0,0.435
597.0,0.491
598.0,0.399
599.0,0.459
600.0,0.52
601.0,0.582
602.0,0.484
603.0,0.09
604.0,0.12
605.0,0.423
606.0,0.965
607.0,0.575
608.0,0.182
609.0,0.549
610.0,1.079
611.0,1.01
612.0,0.62
613.0,0.454
614.0,0.533
615.0,0.62
616.0,0.706
617.0,0.724
618.0,0.343
619.0,0.038
620.0,0.008
621.0,0.095
622.0,0.558
623.0,1.105
624.0,1.053
625.0,0.672
626.0,0.739
627.0,1.291
628.0,1.558
629.0,1.217
630.0,0.976
631.0,1.023
632.0,1.013
633.0,1.0
634.0,1.03
635.0,1.124
636.0,1.327
637.0,1.389
638.0,1.291
639.0,1.176
640.0,1.051
641.0,0.959
642.0,0.827
643.0,0.651
644.0,0.446
645.0,0.248
646.0,0.458
647.0,0.653
648.0,0.415
649.0,0.122
650.0,0.187
651.0,0.516
652.0,0.308
653.0,0.246
654.0,0.367
655.0,0.021
656.0,0.273
657.0,0.215
658.0,0.094
659.0,0.402
660.0,0.882
661.0,1.79
662.0,2.801
663.0,4.277
664.0,5.816
665.0,8.34
666.0,11.155
667.0,14.981
668.0,19.73
669.0,26.763
670.0,36.398
671.0,47.359
672.0,61.213
673.0,74.965
674.0,88.004
675.0,100.772
676.0,104.538
677.0,108.346
678.0,102.527
679.0,95.63
680.0,84.115
681.0,71.221
682.0,58.678
683.0,46.345
684.0,35.895
685.0,27.347
686.0,20.367
687.0,16.101
688.0,12.092
689.0,8.844
690.0,5.842
691.0,4.572
692.0,3.335
693.0,1.997
694.0,0.624
695.0,0.084
696.0,0.273
697.0,0.321
698.0,0.267
699.0,0.205
700.0,0.122
701.0,0.077
702.0,0.044
703.0,0.019
704.0,0.006
705.0,0.006
706.0,0.017
707.0,0.012
708.0,0.43
709.0,0.825
710.0,0.738
711.0,0.632
712.0,0.883
713.0,1.175
714.0,1.088
715.0,0.873
716.0,1.275
717.0,2.034
718.0,2.231
719.0,1.935
720.0,1.604
721.0,1.227
722.0,0.948
723.0,0.966
724.0,1.176
725.0,1.803
726.0,2.276
727.0,1.399
728.0,0.548
729.0,0.64
730.0,0.739
731.0,0.393
732.0,0.027
733.0,0.38
734.0,0.952
735.0,1.202
736.0,1.286
737.0,1.363
738.0,1.431
739.0,1.296
740.0,0.902
741.0,0.67
742.0,0.747
743.0,0.822
744.0,0.877
745.0,0.868
746.0,0.455
747.0,0.11
748.0,0.169
749.0,0.253
750.0,0.792
751.0,1.34
752.0,1.061
753.0,0.636
754.0,0.572
755.0,0.621
756.0,0.667
757.0,0.71
758.0,0.752
759.0,0.791
760.0,0.599
761.0,0.157
762.0,0.099
763.0,0.084
764.0,0.069
765.0,0.054
766.0,0.034
767.0,0.016
768.0,0.001
769.0,0.017
770.0,0.032
771.0,0.047
772.0,0.063
773.0,0.079
774.0,0.095
775.0,0.112
776.0,0.13
777.0,0.528
778.0,0.967
779.0,1.081
780.0,1.069
781.0,1.979
782.0,3.441
783.0,4.387
784.0,4.906
785.0,5.43
786.0,5.957
787.0,6.298
788.0,6.355
789.0,6.414
790.0,6.478
791.0,6.427
792.0,6.015
793.0,5.607
794.0,5.282
795.0,4.837
796.0,3.962
797.0,3.104
798.0,2.72
799.0,2.338
800.0,1.961
801.0,1.587
802.0,1.269
803.0,0.958
804.0,0.59
805.0,0.225
806.0,0.227
807.0,0.349
808.0,0.139
809.0,0.22
810.0,0.021
811.0,0.627
812.0,0.962
813.0,1.085
814.0,0.965
815.0,0.645
816.0,0.292
817.0,0.071
818.0,0.071
819.0,0.527
820.0,0.818
821.0,0.446
822.0,0.327
823.0,0.926
824.0,1.323
825.0,0.869
826.0,0.563
827.0,0.67
828.0,0.729
829.0,0.346
830.0,0.018
831.0,0.08
832.0,0.176
833.0,0.217
834.0,0.251
835.0,0.426
836.0,0.528
837.0,0.616
838.0,0.704
839.0,0.79
840.0,0.88
841.0,0.968
842.0,1.053
843.0,0.771
844.0,0.364
845.0,0.298
846.0,0.336
847.0,0.404
848.0,0.481
849.0,0.258
850.0,0.152
851.0,0.004
852.0,0.561
853.0,0.603
854.0,0.186
855.0,0.01
856.0,0.082
857.0,0.152
858.0,0.222
859.0,0.291
860.0,0.36
861.0,0.428
862.0,0.497
863.0,0.566
864.0,0.634
865.0,0.702
866.0,0.787
867.0,0.706
868.0,0.28
869.0,0.097
870.0,0.658
871.0,0.997
872.0,0.568
873.0,0.233
874.0,0.298
875.0,0.363
876.0,0.427
877.0,0.492
878.0,0.556
879.0,0.569
880.0,0.139
881.0,0.207
882.0,0.352
883.0,0.855
884.0,0.426
885.0,0.028
886.0,0.588
887.0,1.136
888.0,0.705
889.0,0.274
890.0,0.333
891.0,0.397
892.0,0.46
893.0,0.523
894.0,0.586
895.0,0.648
896.0,0.86
897.0,0.822
898.0,0.884
899.0,0.944
900.0,0.556
901.0,0.117
902.0,0.564
903.0,1.12
904.0,0.803
905.0,0.365
906.0,0.356
907.0,0.414
908.0,0.471
909.0,0.528
910.0,0.164
911.0,0.277
912.0,0.106
913.0,0.653
914.0,0.787
915.0,0.836
916.0,0.884
917.0,0.932
918.0,0.571
919.0,0.12
920.0,0.077
921.0,0.125
922.0,0.2
923.0,0.252
924.0,0.71
925.0,1.262
926.0,1.003
927.0,0.405
928.0,0.361
929.0,0.413
930.0,0.465
931.0,0.519
932.0,0.573
933.0,0.627
934.0,0.68
935.0,0.734
936.0,0.372
937.0,0.074
938.0,0.447
939.0,1.002
940.0,1.133
941.0,1.182
942.0,1.23
943.0,1.283
944.0,1.334
945.0,1.385
946.0,1.48
947.0,1.529
948.0,1.134
949.0,0.677
950.0,0.666
951.0,0.71
952.0,0.296
953.0,0.195
954.0,0.264
955.0,0.796
956.0,0.856
957.0,0.882
958.0,0.907
959.0,0.931
960.0,0.462
961.0,0.021
962.0,0.492
963.0,1.007
964.0,1.022
965.0,1.035
966.0,1.048
967.0,1.032
968.0,0.535
969.0,0.017
970.0,0.498
971.0,0.962
972.0,0.975
973.0,0.988
974.0,1.001
975.0,0.934
976.0,0.44
977.0,0.005
978.0,0.011
979.0,0.027
980.0,0.043
981.0,0.06
982.0,0.078
983.0,0.096
984.0,0.115
985.0,0.134
986.0,0.159
987.0,0.253
988.0,0.281
989.0,0.307
990.0,0.333
991.0,0.36
992.0,0.388
993.0,0.461
994.0,0.49
995.0,0.52
996.0,0.549
997.0,0.579
998.0,0.61
999.0,0.64
1000.0,0.67
1001.0,0.387
1002.0,0.095
1003.0,0.088
1004.0,0.623
1005.0,0.8
1006.0,0.822
1007.0,0.463
1008.0,0.028
1009.0,0.286
1010.0,0.814
1011.0,1.357
1012.0,1.896
1013.0,1.977
1014.0,1.994
1015.0,2.008
1016.0,2.02
1017.0,1.524
1018.0,0.988
1019.0,1.508
1020.0,1.938
1021.0,1.431
1022.0,0.997
1023.0,1.004
1024.0,0.863
1025.0,0.355
1026.0,0.024
1027.0,0.019
1028.0,0.015
1029.0,0.012
1030.0,0.009
1031.0,0.005
1032.0,0.219
1033.0,0.739
1034.0,0.759
1035.0,0.252
1036.0,0.029
1037.0,0.04
1038.0,0.051
1039.0,0.064
1040.0,0.08
1041.0,0.097
1042.0,0.1
1043.0,0.108
1044.0,0.537
1045.0,1.073
1046.0,1.161
1047.0,1.187
1048.0,1.705
1049.0,2.254
1050.0,2.291
1051.0,2.33
1052.0,2.37
1053.0,2.334
1054.0,1.858
1055.0,1.384
1056.0,0.911
1057.0,0.593
1058.0,0.642
1059.0,0.693
1060.0,0.744
1061.0,0.565
1062.0,0.099
1063.0,0.002
1064.0,0.128
1065.0,0.187
1066.0,0.242
1067.0,0.296
1068.0,0.349
1069.0,0.409
1070.0,0.465
1071.0,0.517
1072.0,0.568
1073.0,0.618
1074.0,0.667
1075.0,0.716
1076.0,0.716
1077.0,0.24
1078.0,0.146
1079.0,0.108
1080.0,0.061
1081.0,0.614
1082.0,0.8
1083.0,0.305
1084.0,0.038
1085.0,0.064
1086.0,0.365
1087.0,0.912
1088.0,1.134
1089.0,1.155
1090.0,0.803
1091.0,0.298
1092.0,0.638
1093.0,1.186
1094.0,0.696
1095.0,0.117
1096.0,0.13
1097.0,0.199
1098.0,0.746
1099.0,1.096
1100.0,0.585
1101.0,0.227
1102.0,0.249
1103.0,0.271
1104.0,0.293
1105.0,0.315
1106.0,0.337
1107.0,0.744
1108.0,1.361
1109.0,1.182
1110.0,0.68
1111.0,0.598
1112.0,0.626
1113.0,0.652
1114.0,0.678
1115.0,0.704
1116.0,0.73
1117.0,0.755
1118.0,0.787
1119.0,0.813
1120.0,0.662
1121.0,0.156
1122.0,0.117
1123.0,0.1
1124.0,0.204
1125.0,0.745
1126.0,0.581
1127.0,0.061
1128.0,0.365
1129.0,0.904
1130.0,0.969
1131.0,0.973
1132.0,0.449
1133.0,0.008
1134.0,0.002
1135.0,0.134
1136.0,0.671
1137.0,1.015
1138.0,0.945
1139.0,0.884
1140.0,0.889
1141.0,0.896
1142.0,0.906
1143.0,0.529
1144.0,0.007
1145.0,0.392
1146.0,0.941
1147.0,0.969
1148.0,0.986
1149.0,0.996
1150.0,0.89
1151.0,0.374
1152.0,0.049
1153.0,0.07
1154.0,0.094
1155.0,0.121
1156.0,0.149
1157.0,0.264
1158.0,0.294
1159.0,0.323
1160.0,0.354
1161.0,0.449
1162.0,1.016
1163.0,1.428
1164.0,0.924
1165.0,0.569
1166.0,0.6
1167.0,0.632
1168.0,0.664
1169.0,0.695
1170.0,0.726
1171.0,0.385
1172.0,0.122
1173.0,0.258
1174.0,0.82
1175.0,0.335
1176.0,0.058
1177.0,0.503
1178.0,0.922
1179.0,0.939
1180.0,0.955
1181.0,0.971
1182.0,0.986
1183.0,1.0
1184.0,1.015
1185.0,1.029
1186.0,1.042
1187.0,1.055
1188.0,0.983
1189.0,0.922
1190.0,0.394
1191.0,0.022
1192.0,0.023
1193.0,0.01
1194.0,0.004
1195.0,0.018
1196.0,0.034
1197.0,0.455
1198.0,1.016
1199.0,1.09
1200.0,1.081
1201.0,0.559
1202.0,0.154
1203.0,0.176
1204.0,0.201
1205.0,0.228
1206.0,0.542
1207.0,1.113
1208.0,0.932
1209.0,0.417
1210.0,0.366
1211.0,0.437
1212.0,0.498
1213.0,0.552
1214.0,0.598
1215.0,0.63
1216.0,0.661
1217.0,0.692
1218.0,0.722
1219.0,0.752
1220.0,0.782
1221.0,0.811
1222.0,0.84
1223.0,0.867
1224.0,0.797
1225.0,0.277
1226.0,0.052
1227.0,0.03
1228.0,0.011
1229.0,0.006
1230.0,0.4
1231.0,0.962
1232.0,1.047
1233.0,1.058
1234.0,1.069
1235.0,1.079
1236.0,1.087
1237.0,1.095
1238.0,1.102
1239.0,0.793
1240.0,0.247
1241.0,0.115
1242.0,0.077
1243.0,0.561
1244.0,1.03
1245.0,1.019
1246.0,0.858
1247.0,0.309
1248.0,0.024
1249.0,0.024
1250.0,0.39
1251.0,0.939
1252.0,0.548
1253.0,0.014
1254.0,0.01
1255.0,0.131
1256.0,0.679
1257.0,0.766
1258.0,0.21
1259.0,0.009
1260.0,0.009
1261.0,0.01
1262.0,0.01
1263.0,0.009
1264.0,0.009
1265.0,0.009
1266.0,0.007
1267.0,0.006
1268.0,0.314
1269.0,0.871
1270.0,1.005
1271.0,1.013
1272.0,1.021
1273.0,1.031
1274.0,1.042
1275.0,0.846
1276.0,0.298
1277.0,0.066
1278.0,0.076
1279.0,0.515
1280.0,1.085
1281.0,1.117
1282.0,1.037
1283.0,0.498
1284.0,0.172
1285.0,0.281
1286.0,0.304
1287.0,0.326
1288.0,0.35
1289.0,0.374
1290.0,0.398
1291.0,0.423
1292.0,0.448
1293.0,0.474
1294.0,0.5
1295.0,0.526
1296.0,0.552
1297.0,0.579
1298.0,0.575
1299.0,0.081
1300.0,0.148
1301.0,0.434
1302.0,0.743
1303.0,0.764
1304.0,0.785
1305.0,0.805
1306.0,0.825
1307.0,0.844
1308.0,0.863
1309.0,0.881
1310.0,0.898
1311.0,0.915
1312.0,0.931
1313.0,0.495
1314.0,0.022
1315.0,0.565
1316.0,0.921
1317.0,0.938
1318.0,0.953
1319.0,0.961
1320.0,0.968
1321.0,0.975
1322.0,0.458
1323.0,0.076
1324.0,0.645
1325.0,0.997
1326.0,1.001
1327.0,0.657
1328.0,0.095
1329.0,0.012
1330.0,0.026
1331.0,0.024
1332.0,0.021
1333.0,0.017
1334.0,0.296
1335.0,0.866
1336.0,0.548
1337.0,0.005
1338.0,0.001
1339.0,0.15
1340.0,0.725
1341.0,1.019
1342.0,1.027
1343.0,0.617
1344.0,0.058
1345.0,0.052
1346.0,0.051
1347.0,0.053
1348.0,0.058
1349.0,0.068
1350.0,0.085
1351.0,0.102
1352.0,0.663
1353.0,1.026
1354.0,0.475
1355.0,0.511
1356.0,1.103
1357.0,0.904
1358.0,0.355
1359.0,0.345
1360.0,0.368
1361.0,0.392
1362.0,0.417
1363.0,0.443
1364.0,0.513
1365.0,0.541
1366.0,0.568
1367.0,0.596
1368.0,0.625
1369.0,0.389
1370.0,0.156
1371.0,0.118
1372.0,0.716
1373.0,0.753
1374.0,0.777
1375.0,0.801
1376.0,0.826
1377.0,0.855
1378.0,0.449
1379.0,0.078
1380.0,0.523
1381.0,0.802
1382.0,0.251
1383.0,0.014
1384.0,0.039
1385.0,0.531
1386.0,1.01
1387.0,1.035
1388.0,0.862
1389.0,0.309
1390.0,0.462
1391.0,1.098
1392.0,1.808
1393.0,2.148
1394.0,1.014
1395.0,0.327
1396.0,0.35
1397.0,0.777
1398.0,1.38
1399.0,1.421
1400.0,1.444
1401.0,1.468
1402.0,1.493
1403.0,1.518
1404.0,1.081
1405.0,0.525
1406.0,0.032
1407.0,0.183
1408.0,0.412
1409.0,1.007
1410.0,1.602
1411.0,1.667
1412.0,1.617
1413.0,1.048
1414.0,1.036
1415.0,1.632
1416.0,1.34
1417.0,0.797
1418.0,0.809
1419.0,0.82
1420.0,0.831
1421.0,0.842
1422.0,0.82
1423.0,0.724
1424.0,0.734
1425.0,0.745
1426.0,0.476
1427.0,0.099
1428.0,0.692
1429.0,1.701
1430.0,0.536
1431.0,0.035
1432.0,0.628
1433.0,0.834
1434.0,0.84
1435.0,0.847
1436.0,0.859
1437.0,0.875
1438.0,0.888
1439.0,0.901
1440.0,0.413
1441.0,0.009
1442.0,0.607
1443.0,0.892
1444.0,0.902
1445.0,0.47
1446.0,0.046
1447.0,0.552
1448.0,0.94
1449.0,0.95
1450.0,0.569
1451.0,0.012
1452.0,0.022
1453.0,0.013
1454.0,0.004
1455.0,0.005
1456.0,0.014
1457.0,0.545
1458.0,1.027
1459.0,1.039
1460.0,1.051
1461.0,1.064
1462.0,1.055
1463.0,0.986
1464.0,0.407
1465.0,0.097
1466.0,0.112
1467.0,0.121
1468.0,0.128
1469.0,0.14
1470.0,0.394
1471.0,1.007
1472.0,1.2
1473.0,1.22
1474.0,1.241
1475.0,1.049
1476.0,0.475
1477.0,0.309
1478.0,0.334
1479.0,0.359
1480.0,0.385
1481.0,0.412
1482.0,0.439
1483.0,0.473
1484.0,1.091
1485.0,1.167
1486.0,0.0
1487.0,0.033
1488.0,0.597
1489.0,0.652
1490.0,0.686
1491.0,0.72
1492.0,0.756
1493.0,0.793
1494.0,0.242
1495.0,0.023
1496.0,0.661
1497.0,0.555
1498.0,0.001
1499.0,0.021
1500.0,0.0
