Wavenumber (cm⁻¹),Intensity
200.0,7249.091317776396
201.00097751710655,7319.527968093526
202.0019550342131,7409.169428104438
203.00293255131965,7504.2527405558885
204.0039100684262,7606.319064082216
205.00488758553274,7721.339935460757
206.0058651026393,7848.5649322636
207.00684261974584,7972.034658341448
208.0078201368524,8050.098335601431
209.00879765395894,8081.579315062827
210.00977517106548,8029.839624615182
211.01075268817203,7851.8399824349
212.01173020527858,7563.173993235247
213.01270772238513,7291.19356676568
214.01368523949168,7046.756994839148
215.01466275659823,6840.458166888389
216.01564027370478,6700.074875877025
217.01661779081132,6613.444533026984
218.01759530791787,6545.733069252859
219.01857282502445,6510.681313769608
220.019550342131,6493.774384299234
221.02052785923755,6411.953993647659
222.0215053763441,6422.765193626451
223.02248289345064,6425.18895542372
224.0234604105572,6392.464764537602
225.02443792766374,6357.346135400107
226.0254154447703,6355.076671290459
227.02639296187684,6337.137726283652
228.02737047898339,6298.119155351024
229.02834799608993,6290.214483220303
230.02932551319648,6359.772293614629
231.03030303030303,6350.78683584078
232.03128054740958,6354.568069584376
233.03225806451613,6431.819498096365
234.03323558162268,6508.744140078485
235.03421309872923,6473.053412942278
236.03519061583577,6503.406294591538
237.03616813294232,6594.20345132721
238.03714565004887,6685.999156180914
239.03812316715542,6754.605505705427
240.03910068426197,6824.198804717386
241.04007820136852,6919.926790411897
242.04105571847506,7006.825781387757
243.0420332355816,7109.343589762975
244.0430107526882,7259.814249229963
245.04398826979474,7415.269553752799
246.0449657869013,7521.889240563696
247.04594330400784,7697.210259705472
248.04692082111438,7956.569257411223
249.04789833822093,8209.930784996526
250.04887585532748,8566.093813116007
251.04985337243403,8837.321478390224
252.05083088954058,8909.998654724775
253.05180840664713,8744.670777864352
254.05278592375367,8416.103432581725
255.05376344086022,7997.22985359304
256.05474095796677,7622.274351912649
257.0557184750733,7368.323654213206
258.05669599217987,7228.328366518832
259.0576735092864,7134.297008141515
260.05865102639297,7078.43801618469
261.0596285434995,7076.2305708699905
262.06060606060606,7140.905930028348
263.0615835777126,7236.727885899971
264.06256109481916,7286.127981130129
265.0635386119257,7397.941823800008
266.06451612903226,7539.5697378605655
267.0654936461388,7696.810650971245
268.06647116324535,7861.606221417559
269.0674486803519,7968.102556044211
270.06842619745845,8028.163003482644
271.069403714565,8071.176086097322
272.07038123167155,8044.106312905843
273.0713587487781,7893.468127646785
274.07233626588464,7880.197020901878
275.0733137829912,7841.017599196089
276.07429130009774,7816.364753470834
277.0752688172043,7870.662040017576
278.07624633431084,8019.598736803975
279.0772238514174,8122.427407749534
280.07820136852393,8287.084791071284
281.0791788856305,8529.06067104025
282.08015640273703,8810.78130329653
283.0811339198436,9104.19796741365
284.08211143695013,9475.442754462549
285.0830889540567,9925.804150242413
286.0840664711632,10460.298105835012
287.0850439882698,11057.846909908421
288.0860215053764,11662.344229033824
289.0869990224829,12292.249213521502
290.0879765395895,12724.459887454754
291.088954056696,12774.008185169143
292.0899315738026,12370.467598501402
293.0909090909091,11607.561270954702
294.09188660801567,10668.919494707554
295.0928641251222,9755.209031220294
296.09384164222877,9014.743514590655
297.0948191593353,8448.082161309761
298.09579667644186,7937.946925772144
299.0967741935484,7567.48807957791
300.09775171065496,7387.045301819252
301.0987292277615,7258.541246306931
302.09970674486806,7089.158507241344
303.1006842619746,6949.114374028335
304.10166177908116,6914.1028949875745
305.1026392961877,6875.784896532216
306.10361681329425,6858.717661736502
307.1045943304008,6867.129432616914
308.10557184750735,6819.163808739989
309.1065493646139,6818.559971019588
310.10752688172045,6797.606833566409
311.108504398827,6764.6771455089265
312.10948191593354,6745.429566153536
313.1104594330401,6731.243448522805
314.11143695014664,6707.447464328533
315.1124144672532,6722.32126327855
316.11339198435974,6756.382166311326
317.1143695014663,6785.388262535426
318.11534701857283,6839.25137371075
319.1163245356794,6851.9551273093875
320.11730205278593,6862.867189186971
321.1182795698925,6943.432272043903
322.119257086999,7099.08353265213
323.1202346041056,7230.509590145391
324.1212121212121,7374.121239495746
325.1221896383187,7538.92025028574
326.1231671554252,7740.970861033804
327.12414467253177,7984.738412117725
328.1251221896383,8234.883204661584
329.12609970674487,8343.601587714063
330.1270772238514,8259.406966803754
331.12805474095796,7986.223709169095
332.1290322580645,7611.793898749425
333.13000977517106,7289.161520224828
334.1309872922776,7005.359824876421
335.13196480938416,6834.397713571672
336.1329423264907,6749.766513621064
337.13391984359725,6684.348710207237
338.1348973607038,6609.574204323582
339.13587487781035,6558.004130762836
340.1368523949169,6531.983147073034
341.13782991202345,6481.932888017416
342.13880742913,6437.74153053063
343.13978494623655,6448.348346644273
344.1407624633431,6447.192141159592
345.14173998044964,6415.502409962483
346.1427174975562,6424.857757752566
347.14369501466274,6438.83830031223
348.1446725317693,6417.7123001529035
349.14565004887584,6471.374395282491
350.1466275659824,6463.806546206233
351.14760508308893,6435.971940227901
352.1485826001955,6400.909318664901
353.14956011730203,6358.273203853064
354.1505376344086,6370.3113182670795
355.1515151515151,6379.221034841256
356.1524926686217,6361.474649742909
357.1534701857282,6324.292826495275
358.1544477028348,6294.8861917736085
359.1554252199413,6301.365514142975
360.15640273704787,6296.18892974367
361.1573802541544,6277.357253790693
362.15835777126097,6283.9630558078925
363.1593352883675,6310.141120119435
364.16031280547406,6301.336603227612
365.1612903225806,6272.41410317094
366.16226783968716,6276.840232709089
367.1632453567937,6272.761369070395
368.16422287390026,6246.814328419591
369.1652003910068,6234.660121022944
370.16617790811335,6260.6930376163655
371.1671554252199,6268.61339429585
372.16813294232645,6252.253802058768
373.169110459433,6249.287393646258
374.17008797653955,6285.597526017952
375.1710654936461,6284.739440963827
376.1720430107527,6251.459845140775
377.17302052785925,6238.352802593857
378.1739980449658,6237.301486080672
379.17497556207235,6231.387099819052
380.1759530791789,6243.313021838109
381.17693059628544,6236.396306412581
382.177908113392,6276.364333785899
383.17888563049854,6299.236036565952
384.1798631476051,6279.824891751082
385.18084066471164,6282.390312514713
386.1818181818182,6264.4615934642
387.18279569892474,6285.029572849964
388.1837732160313,6313.892573782874
389.18475073313783,6331.258157469065
390.1857282502444,6347.496390396731
391.18670576735093,6357.833890262401
392.1876832844575,6440.853546668689
393.188660801564,6516.862787583162
394.1896383186706,6564.394110876109
395.1906158357771,6587.187687275428
396.1915933528837,6576.473490395318
397.1925708699902,6666.956784965902
398.19354838709677,6756.698720055401
399.1945259042033,6779.882050045147
400.19550342130987,6758.94370114802
401.1964809384164,6747.652964162776
402.19745845552296,6751.670771854359
403.1984359726295,6703.34910759866
404.19941348973606,6767.177829625519
405.2003910068426,6880.309760068406
406.20136852394916,6933.642345665135
407.2023460410557,7021.264243423658
408.20332355816225,7096.107030520187
409.20430107526886,7094.638749237763
410.2052785923754,7020.099323877506
411.20625610948196,6909.711664799629
412.2072336265885,6819.268368144175
413.20821114369505,6820.3829442851775
414.2091886608016,6883.907146998623
415.21016617790815,6953.539037041634
416.2111436950147,7010.04453662222
417.21212121212125,7010.304747851883
418.2130987292278,6832.672742777754
419.21407624633434,6728.230737455448
420.2150537634409,6559.039084973217
421.21603128054744,6400.158730402158
422.217008797654,6326.052984956534
423.21798631476054,6274.3022691740625
424.2189638318671,6186.9498049716485
425.21994134897363,6160.130638660659
426.2209188660802,6153.882885851103
427.22189638318673,6138.106544869575
428.2228739002933,6117.9160861921955
429.2238514173998,6102.225376983598
430.2248289345064,6087.3492829539955
431.2258064516129,6077.811739975381
432.2267839687195,6097.211340047402
433.227761485826,6129.778902966474
434.22873900293257,6118.004915977325
435.2297165200391,6102.9608020508595
436.23069403714567,6062.235387861593
437.2316715542522,6031.500353864233
438.23264907135876,6021.066739636767
439.2336265884653,6020.470009909197
440.23460410557186,6032.137174371534
441.2355816226784,6075.234758699265
442.23655913978496,6065.760155498011
443.2375366568915,6061.662647552467
444.23851417399806,6074.70860829383
445.2394916911046,6057.7258953910705
446.24046920821115,6059.970628274028
447.2414467253177,6091.131026886283
448.24242424242425,6088.663122217822
449.2434017595308,6068.659141910909
450.24437927663735,6085.014934037972
451.2453567937439,6145.488287305072
452.24633431085044,6121.61695365766
453.247311827957,6106.972247182466
454.24828934506354,6155.5460191571865
455.2492668621701,6206.472063017918
456.25024437927664,6211.614430007565
457.2512218963832,6251.635519105989
458.25219941348973,6209.627022432405
459.2531769305963,6257.0456695584635
460.25415444770283,6304.975712253718
461.2551319648094,6310.127205043185
462.2561094819159,6363.173813384849
463.2570869990225,6435.285161092019
464.258064516129,6488.46921289921
465.2590420332356,6547.240904753912
466.2600195503421,6640.254825686657
467.26099706744867,6788.224420329917
468.2619745845552,6978.194073987622
469.26295210166177,7117.561089238327
470.2639296187683,7273.366443691786
471.26490713587486,7466.522441164699
472.2658846529814,7694.889659687585
473.26686217008796,7972.341646051816
474.2678396871945,8359.78146330053
475.26881720430106,8759.944970454082
476.2697947214076,9171.71335017862
477.27077223851416,9593.658231843501
478.2717497556207,9938.129529585354
479.27272727272725,10050.84093228489
480.2737047898338,9871.636408307755
481.27468230694035,9377.281353560506
482.2756598240469,8766.607197601403
483.27663734115345,8213.927465617919
484.27761485826,7757.294580411598
485.27859237536654,7380.550777759343
486.2795698924731,7186.159938633181
487.28054740957964,7013.841230961891
488.2815249266862,6903.937667462548
489.2825024437928,6899.273542305446
490.28347996089934,6952.761508196767
491.2844574780059,6980.893978404214
492.28543499511244,7142.352814625779
493.286412512219,7279.2908382486
494.28739002932554,7521.970160639603
495.2883675464321,7833.81592844418
496.28934506353863,8146.9478398370475
497.2903225806452,8486.429920933626
498.29130009775173,8819.838550694529
499.2922776148583,9288.281241063529
500.2932551319648,9858.449551608588
501.2942326490714,10564.035201832647
502.2952101661779,11405.936085677615
503.2961876832845,12294.750247578877
504.297165200391,13337.90346907054
505.29814271749757,14369.011599754087
506.2991202346041,15229.668588166034
507.30009775171067,15575.366875120517
508.3010752688172,15250.685004828782
509.30205278592376,14396.35655604358
510.3030303030303,12955.692250130402
511.30400782013686,11474.751982974845
512.3049853372434,10168.08409892939
513.3059628543499,9139.213336647434
514.3069403714564,8389.763053908227
515.307917888563,7834.788813388533
516.3088954056695,7438.2397485798565
517.3098729227761,7113.4547156777735
518.3108504398826,6845.043424002769
519.3118279569892,6657.3223598292825
520.3128054740957,6557.4850275489125
521.3137829912023,6494.2074201888045
522.3147605083088,6352.5866890976695
523.3157380254154,6209.4285625956745
524.3167155425219,6148.982029055436
525.3176930596285,6087.5013027744735
526.318670576735,5992.187567834842
527.3196480938416,5968.765894631932
528.3206256109481,5931.094210498506
529.3216031280547,5920.081434855612
530.3225806451612,5929.282930887046
531.3235581622678,5904.8759719958925
532.3245356793743,5844.462331189937
533.3255131964809,5795.598879293977
534.3264907135874,5742.47246726575
535.327468230694,5736.40078874215
536.3284457478005,5708.5056965439
537.3294232649071,5693.805168898167
538.3304007820136,5701.547471403721
539.3313782991202,5683.075037833689
540.3323558162267,5617.08492202755
541.3333333333333,5635.679940814491
542.3343108504398,5629.883358277861
543.3352883675464,5623.960376600782
544.3362658846529,5624.800086683931
545.3372434017595,5608.403309603711
546.338220918866,5595.161232852646
547.3391984359725,5554.457086164252
548.3401759530791,5602.62083616391
549.3411534701856,5582.717108645325
550.3421309872922,5534.362693927881
551.3431085043987,5559.3076101787055
552.3440860215054,5587.519416247912
553.345063538612,5581.242374479686
554.3460410557185,5522.388333935537
555.347018572825,5510.050558598004
556.3479960899316,5521.864883574286
557.3489736070381,5503.175599696708
558.3499511241447,5470.136215479767
559.3509286412512,5487.153689014319
560.3519061583578,5481.34151073231
561.3528836754643,5508.6589186799465
562.3538611925709,5481.694291775375
563.3548387096774,5429.408971174498
564.355816226784,5468.315754117041
565.3567937438905,5524.980297257255
566.3577712609971,5466.550378337443
567.3587487781036,5463.8963461811345
568.3597262952102,5502.820584756167
569.3607038123167,5507.06632505029
570.3616813294233,5486.723550756086
571.3626588465298,5517.780474899952
572.3636363636364,5512.449987743018
573.3646138807429,5490.628378387303
574.3655913978495,5526.256849304011
575.366568914956,5559.192865376369
576.3675464320626,5591.188955395464
577.3685239491691,5674.670085531026
578.3695014662757,5676.733978040232
579.3704789833822,5655.178050926393
580.3714565004888,5592.345336305224
581.3724340175953,5577.5278704433995
582.3734115347019,5597.469522725702
583.3743890518084,5562.3762455897695
584.375366568915,5478.131403921992
585.3763440860215,5466.752840021144
586.377321603128,5433.059323383584
587.3782991202346,5378.6760938671905
588.3792766373411,5310.855903136792
589.3802541544477,5276.901026002847
590.3812316715542,5317.329783813607
591.3822091886608,5316.27772241353
592.3831867057673,5348.556132299164
593.3841642228739,5300.143903993304
594.3851417399804,5271.986927676306
595.386119257087,5275.957297477454
596.3870967741935,5248.9317672161205
597.3880742913001,5320.408994160645
598.3890518084066,5348.10323972061
599.3900293255132,5302.641101242958
600.3910068426197,5256.910320663934
601.3919843597263,5268.468667654726
602.3929618768328,5290.739952770233
603.3939393939394,5261.93996368162
604.3949169110459,5298.6861707708795
605.3958944281525,5267.020606291755
606.396871945259,5236.4084010409415
607.3978494623656,5229.3034981320525
608.3988269794721,5237.1737570647965
609.3998044965787,5231.394158694155
610.4007820136852,5194.470361709717
611.4017595307918,5188.855911091565
612.4027370478983,5179.947750975033
613.4037145650049,5229.8295388623355
614.4046920821114,5239.00593714632
615.405669599218,5221.28856336312
616.4066471163245,5259.40728412373
617.4076246334312,5274.402902707546
618.4086021505377,5234.726019758985
619.4095796676443,5265.287351752094
620.4105571847508,5272.94516289559
621.4115347018574,5245.606666593062
622.4125122189639,5243.406967179997
623.4134897360705,5284.160247854423
624.414467253177,5307.45024708879
625.4154447702836,5300.709682834824
626.4164222873901,5359.719296711423
627.4173998044967,5338.686440298154
628.4183773216032,5330.359299785161
629.4193548387098,5398.376173675656
630.4203323558163,5436.371045607734
631.4213098729228,5484.96415909623
632.4222873900294,5441.201048725606
633.423264907136,5422.146033874082
634.4242424242425,5505.845602408661
635.425219941349,5535.033322242432
636.4261974584556,5447.497544423492
637.4271749755621,5390.689948399625
638.4281524926687,5359.30582902879
639.4291300097752,5372.067343079713
640.4301075268818,5403.253630177563
641.4310850439883,5429.963718486023
642.4320625610949,5437.400717787911
643.4330400782014,5433.078211438917
644.434017595308,5441.044123828365
645.4349951124145,5465.8898803735565
646.4359726295211,5423.311521119415
647.4369501466276,5392.220959937614
648.4379276637342,5401.20535768693
649.4389051808407,5391.092526900166
650.4398826979473,5309.964904798829
651.4408602150538,5230.005898901088
652.4418377321604,5219.632033710654
653.4428152492669,5213.35809674986
654.4437927663735,5142.111579121805
655.44477028348,5137.271408843641
656.4457478005866,5131.736368938193
657.4467253176931,5040.515875071651
658.4477028347997,5036.660002814543
659.4486803519062,5034.027780924673
660.4496578690128,5048.4130528416845
661.4506353861193,5062.925888030393
662.4516129032259,5037.794542794448
663.4525904203324,5002.864454129791
664.453567937439,5003.054312003144
665.4545454545455,5024.002707062328
666.455522971652,5026.75659875731
667.4565004887586,4971.575190376369
668.4574780058651,5005.486351926227
669.4584555229717,5030.064353128207
670.4594330400782,5044.828820482561
671.4604105571848,5034.364906890126
672.4613880742913,4959.040452290129
673.4623655913979,4963.844297348295
674.4633431085044,4990.692971385575
675.464320625611,5004.384968135903
676.4652981427175,4985.0830513967985
677.4662756598241,4959.681918883111
678.4672531769306,4948.243763095556
679.4682306940372,4938.404413820644
680.4692082111437,4931.520913370208
681.4701857282503,4953.170248427428
682.4711632453568,4993.549463557228
683.4721407624634,4988.235052924001
684.4731182795699,4928.574244903007
685.4740957966765,4892.478505039831
686.475073313783,4932.039290051284
687.4760508308896,4945.895260116674
688.4770283479961,4930.865430193884
689.4780058651027,4908.535302636741
690.4789833822092,4874.245169749363
691.4799608993158,4909.7567382893585
692.4809384164223,4921.260586313786
693.4819159335289,4881.990420034295
694.4828934506354,4929.519974586989
695.483870967742,4869.2846891355675
696.4848484848485,4879.768361914101
697.485826001955,4882.675767355999
698.4868035190616,4930.556586221938
699.4877810361681,4944.316128992312
700.4887585532747,4904.604530947509
701.4897360703812,4890.39930540688
702.4907135874878,4876.646276022363
703.4916911045943,4886.58041700462
704.4926686217009,4900.627276225531
705.4936461388074,4900.75292342073
706.494623655914,4913.068696939688
707.4956011730205,4902.443874562718
708.4965786901271,4881.9124390811785
709.4975562072336,4921.014851514727
710.4985337243402,4937.526633638511
711.4995112414467,4946.679083746173
712.5004887585533,4904.73539463507
713.5014662756598,4909.1411696481855
714.5024437927664,4886.1912937177385
715.5034213098729,4861.188864072203
716.5043988269795,4935.667531890354
717.505376344086,4922.622004937049
718.5063538611926,4838.660628250305
719.5073313782991,4870.008763030874
720.5083088954057,4879.579740188441
721.5092864125122,4857.777390625244
722.5102639296188,4867.065449307495
723.5112414467253,4883.342434826009
724.5122189638319,4826.7169084783645
725.5131964809384,4805.481285057856
726.514173998045,4825.294748190093
727.5151515151515,4792.043695234864
728.516129032258,4797.216950766471
729.5171065493646,4818.217233481005
730.5180840664711,4806.188656835534
731.5190615835777,4773.419835886619
732.5200391006842,4752.47929673575
733.5210166177908,4756.394908379415
734.5219941348973,4801.233048926341
735.5229716520039,4735.500416166809
736.5239491691104,4728.949906797463
737.524926686217,4751.5276716175
738.5259042033235,4750.05740985441
739.5268817204301,4742.660238390286
740.5278592375366,4747.51305156352
741.5288367546432,4747.679976564936
742.5298142717497,4714.154437954025
743.5307917888563,4707.391801965819
744.5317693059628,4707.572619884332
745.5327468230694,4752.489342165046
746.5337243401759,4796.089393786543
747.5347018572825,4772.8804771074265
748.535679374389,4756.944753867032
749.5366568914956,4773.477331976852
750.5376344086021,4811.175934444509
751.5386119257087,4860.165767165805
