Raman Shift,Intensity
92.04205,1357.172
92.52417,1358.664
93.00629,1357.573
93.4884,1346.788
93.97052,1319.797
94.45264,1277.389
94.93475,1238.101
95.41687,1201.057
95.89898,1165.765
96.3811,1133.558
96.86321,1106.052
97.34533,1083.099
97.82745,1061.353
98.30956,1040.156
98.79168,1019.205
99.2738,999.2133
99.75591,979.8254
100.238,961.0676
100.7201,943.5714
101.2023,927.6038
101.6844,913.213
102.1665,899.8448
102.6486,887.1877
103.1307,875.4694
103.6128,865.1769
104.095,856.376
104.5771,848.0192
105.0592,839.0543
105.5413,829.8182
106.0234,820.8967
106.5055,811.6072
106.9877,802.59
107.4698,797.1118
107.9519,799.9582
108.434,800.2676
108.9161,792.8353
109.3982,779.26
109.8804,763.7363
110.3625,749.2938
110.8446,735.6017
111.3267,725.1444
111.8088,719.6018
112.2909,715.5422
112.7731,711.9475
113.2552,708.4156
113.7373,704.6063
114.2194,699.9533
114.7015,692.7142
115.1836,687.9368
115.6658,687.4068
116.1479,688.3708
116.63,688.1853
117.1121,685.8912
117.5942,682.2414
118.0763,678.9265
118.5584,676.0989
119.0406,673.1909
119.5227,669.8463
120.0048,666.2649
120.4869,662.929
120.969,659.9395
121.4511,657.5121
121.9333,655.5363
122.4154,653.3513
122.8975,652.7061
123.3796,656.4377
123.8617,665.2663
124.3438,672.3744
124.826,672.3027
125.3081,669.53
125.7902,667.7713
126.2723,668.2976
126.7544,670.5486
127.2365,673.3407
127.7187,676.8398
128.2008,680.7022
128.6829,684.2817
129.165,688.1961
129.6471,693.1901
130.1292,699.6955
130.6114,707.7084
131.0935,717.1863
131.5756,727.9987
132.0577,740.6236
132.5398,755.0732
133.0219,771.4875
133.5041,789.9982
133.9862,810.8166
134.4683,834.2327
134.9504,859.3217
135.4325,887.1404
135.9146,915.4691
136.3968,943.631
136.8789,971.3006
137.361,997.5713
137.8431,1020.812
138.3252,1040.465
138.8073,1059.832
139.2895,1078.584
139.7716,1097.388
140.2537,1116.748
140.7358,1136.476
141.2179,1157.616
141.7,1181.368
142.1821,1207.294
142.6643,1235.592
143.1464,1265.997
143.6285,1298.741
144.1106,1334.523
144.5927,1372.128
145.0748,1415.213
145.557,1465.195
146.0391,1522.05
146.5212,1585.812
147.0033,1656.422
147.4854,1734.005
147.9675,1818.502
148.4497,1905.344
148.9318,2003.737
149.4139,2118.335
149.896,2250.038
150.3781,2401.239
150.8602,2572.636
151.3424,2762.219
151.8245,2984.472
152.3066,3243.545
152.7887,3526.731
153.2708,3835.172
153.7529,4166.175
154.2351,4505.037
154.7172,4815.833
155.1993,5151.106
155.6814,5379.481
156.1635,5500.813
156.6456,5513.424
157.1278,5404.576
157.6099,5165.04
158.092,4814.432
158.5741,4428.013
159.0562,3959.661
159.5383,3511.774
160.0205,3101.055
160.5026,2729.497
160.9847,2400.437
161.4668,2119.323
161.9489,1885.823
162.431,1686.441
162.9131,1528.292
163.3953,1393.816
163.8774,1277.185
164.3595,1177.719
164.8416,1091.812
165.3237,1020.363
165.8058,961.6241
166.288,909.4566
166.7701,864.2684
167.2522,824.3491
167.7343,788.3983
168.2164,756.6893
168.6985,727.955
169.1807,702.1832
169.6628,678.8994
170.1449,657.9001
170.627,639.5492
171.1091,623.2977
171.5912,607.9006
172.0734,593.1967
172.5555,579.8336
173.0376,568.0961
173.5197,557.4821
174.0018,547.2413
174.4839,536.9917
174.9661,526.7872
175.4482,517.0566
175.9303,507.551
176.4124,498.9264
176.8945,491.7679
177.3766,485.5714
177.8588,479.4907
178.3409,472.7731
178.823,465.3918
179.3051,459.3813
179.7872,455.8322
180.2693,452.5545
180.7515,449.1503
181.2336,445.5067
181.7157,441.5818
182.1978,437.2852
182.6799,432.54
183.162,428.2044
183.6441,423.8491
184.1263,420.1482
184.6084,417.7847
185.0905,416.5739
185.5726,415.5652
186.0547,413.9059
186.5368,411.4841
187.019,409.1063
187.5011,406.683
187.9832,404.3828
188.4653,402.5934
188.9474,401.3177
189.4296,399.7077
189.9117,396.757
190.3938,392.4996
190.8759,388.4463
191.358,383.8213
191.8401,379.9236
192.3223,378.8974
192.8044,381.4892
193.2865,384.2848
193.7686,383.4594
194.2507,380.0252
194.7328,376.7243
195.215,374.3863
195.6971,372.7304
196.1792,371.1432
196.6613,369.4312
197.1434,368.1434
197.6255,367.9399
198.1077,368.4698
198.5898,368.8667
199.0719,368.4797
199.554,367.5395
200.0361,367.0517
200.5182,367.1933
201.0004,367.6209
201.4825,368.3411
201.9646,369.1891
202.4467,369.7484
202.9288,369.4492
203.4109,368.3865
203.893,368.2497
204.3752,370.0992
204.8573,371.8287
205.3394,372.8051
205.8215,373.0316
206.3036,372.643
206.7857,371.6075
207.2679,369.8758
207.75,368.4698
208.2321,367.3107
208.7142,366.5786
209.1963,366.3804
209.6784,366.6842
210.1606,367.4456
210.6427,368.7404
211.1248,370.7049
211.6069,371.8886
212.089,371.6387
212.5711,371.2952
213.0533,371.2693
213.5354,371.6111
214.0175,372.3075
214.4996,373.4709
214.9817,375.3422
215.4638,375.8258
215.946,373.3812
216.4281,371.2286
216.9102,371.1615
217.3923,373.0225
217.8744,375.4922
218.3565,377.5226
218.8387,379.1156
219.3208,379.5079
219.8029,377.4876
220.285,375.3997
220.7671,374.7225
221.2492,375.4595
221.7314,376.6353
222.2135,377.3763
222.6956,377.6708
223.1777,378.6786
223.6598,381.1615
224.1419,383.7933
224.624,385.5615
225.1062,386.4291
225.5883,386.9155
226.0704,387.0617
226.5525,387.1048
227.0346,388.4322
227.5167,392.6063
227.9989,397.1823
228.481,399.6062
228.9631,399.7002
229.4452,399.5951
229.9273,400.7473
230.4094,402.9062
230.8916,405.365
231.3737,408.0272
231.8558,410.9302
232.3379,414.2734
232.82,418.1457
233.3021,421.8167
233.7843,424.2921
234.2664,426.3724
234.7485,429.394
235.2306,434.2844
235.7127,439.7572
236.1948,443.8828
236.677,446.3014
237.1591,448.9677
237.6412,452.8343
238.1233,457.5475
238.6054,462.9017
239.0875,468.9052
239.5697,475.4284
240.0518,482.3148
240.5339,489.7208
241.016,497.0899
241.4981,504.6688
241.9802,511.9263
242.4624,518.0188
242.9445,522.3614
243.4266,526.2914
243.9087,532.1477
244.3908,540.3791
244.8729,549.3633
245.355,558.8076
245.8372,568.6242
246.3193,578.62
246.8014,588.7176
247.2835,599.3167
247.7656,611.4528
248.2477,625.7899
248.7299,640.0565
249.212,653.2011
249.6941,666.443
250.1762,680.3742
250.6583,695.2606
251.1404,711.5493
251.6226,730.3653
252.1047,752.6253
252.5868,775.267
253.0689,797.1049
253.551,819.6985
254.0331,844.1199
254.5153,870.6468
254.9974,899.1906
255.4795,929.538
255.9616,960.3046
256.4437,996.2618
256.9258,1037.654
257.408,1082.889
257.8901,1131.309
258.3722,1182.621
258.8543,1236.946
259.3364,1294.058
259.8185,1352.26
260.3007,1418.573
260.7828,1494.163
261.2649,1575.608
261.747,1661.381
262.2291,1751.186
262.7112,1843.962
263.1934,1939.441
263.6755,2038.84
264.1576,2136.565
264.6397,2234.702
265.1218,2329.555
265.6039,2418.678
266.0861,2501.887
266.5682,2580.313
267.0503,2654.396
267.5324,2722.765
268.0145,2794.473
268.4966,2872.554
268.9788,2950.475
269.4609,3023.243
269.943,3092.171
270.4251,3162.205
270.9072,3237.045
271.3893,3316.173
271.8715,3403.366
272.3536,3499.342
272.8357,3600.468
273.3178,3703.621
273.7999,3810.194
274.282,3923.072
274.7642,4043.647
275.2463,4172.479
275.7284,4315.217
276.2105,4470.811
276.6926,4637.717
277.1747,4814.326
277.6568,5002.595
278.1389,5208.178
278.6211,5436.678
279.1032,5681.128
279.5853,5913.636
280.0674,6146.164
280.5495,6357.104
281.0316,6556.313
281.5138,6728.736
281.9959,6852.429
282.478,6920.726
282.9601,6926.558
283.4422,6841.659
283.9243,6659.915
284.4065,6420.474
284.8886,6112.401
285.3707,5755.833
285.8528,5372.003
286.3349,4963.937
286.817,4550.282
287.2992,4156.632
287.7813,3781.456
288.2634,3432.796
288.7455,3112.993
289.2276,2822.259
289.7097,2565.383
290.1919,2343.633
290.674,2149.468
291.1561,1974.268
291.6382,1819.598
292.1203,1680.378
292.6024,1559.443
293.0846,1451.992
293.5667,1354.007
294.0488,1264.531
294.5309,1184.655
295.013,1116.753
295.4951,1061.507
295.9773,1008.804
296.4594,956.3907
296.9415,907.8044
297.4236,866.8359
297.9057,833.3214
298.3878,802.3506
298.87,770.5748
299.3521,738.673
299.8342,709.6584
300.3163,684.1859
300.7984,661.1326
301.2805,640.222
301.7627,621.2592
302.2448,602.9788
302.7269,584.4828
303.209,566.37
303.6911,550.0879
304.1732,535.7679
304.6554,522.6596
305.1375,510.9002
305.6196,500.1263
306.1017,489.3244
306.5838,478.0215
307.0659,466.7236
307.5481,456.4903
308.0302,447.262
308.5123,438.7861
308.9944,431.384
309.4765,424.6154
309.9586,417.8227
310.4408,410.8638
310.9229,403.8515
311.405,396.7903
311.8871,389.5737
312.3692,383.3163
312.8513,378.9856
313.3335,375.3886
313.8156,370.9789
314.2977,365.5199
314.7798,359.9481
315.2619,355.0713
315.744,350.8674
316.2262,346.8473
316.7083,342.979
317.1904,339.2759
317.6725,335.6862
318.1546,332.215
318.6367,329.1791
319.1188,327.1544
319.601,325.6812
320.0831,322.7271
320.5652,316.5047
321.0473,310.6057
321.5294,307.3937
322.0115,306.2548
322.4937,304.9603
322.9758,302.468
323.4579,299.2191
323.94,296.4184
324.4221,294.2558
324.9042,292.025
325.3864,289.3282
325.8685,286.4115
326.3506,283.6771
326.8327,281.2267
327.3148,279.0769
327.7969,277.3514
328.2791,276.1227
328.7612,274.8015
329.2433,273.3502
329.7254,271.7239
330.2075,269.7695
330.6896,267.4604
331.1718,265.1572
331.6539,263.1991
332.136,261.6249
332.6181,260.1651
333.1002,258.9953
333.5823,257.808
334.0645,256.1653
334.5466,254.1718
335.0287,252.5574
335.5108,251.9252
335.9929,252.1317
336.475,252.015
336.9572,252.0342
337.4393,251.3083
337.9214,248.7949
338.4035,245.2235
338.8856,242.3388
339.3677,240.9632
339.8499,240.7226
340.332,240.7429
340.8141,241.3411
341.2962,241.5947
341.7783,241.3591
342.2604,240.6724
342.7426,239.3938
343.2247,237.4861
343.7068,235.5247
344.1889,234.4056
344.671,234.7104
345.1531,234.0919
345.6353,231.3195
346.1174,228.472
346.5995,227.2478
347.0816,227.7084
347.5637,228.8086
348.0458,229.7259
348.528,230.4655
349.0101,230.6694
349.4922,230.2052
349.9743,229.4461
350.4564,228.3488
350.9385,227.0809
351.4207,225.9683
351.9028,225.2104
352.3849,224.7467
352.867,224.3189
353.3491,223.8561
353.8312,223.5182
354.3134,223.6067
354.7955,223.7209
355.2776,223.183
355.7597,221.7917
356.2418,220.2927
356.7239,220.0237
357.2061,222.1274
357.6882,223.1182
358.1703,222.3498
358.6524,221.0656
359.1345,219.9045
359.6166,219.0351
360.0987,218.5374
360.5808,218.5608
361.063,219.2079
361.5451,219.3619
362.0272,218.7427
362.5093,217.9588
362.9914,216.9478
363.4735,215.9377
363.9557,215.3719
364.4378,215.5559
364.9199,216.2711
365.402,216.596
365.8841,216.4805
366.3662,215.9821
366.8484,214.8149
367.3305,213.4441
367.8126,212.19
368.2947,211.1943
368.7768,210.6166
369.2589,210.8981
369.7411,212.6759
370.2232,213.5485
370.7053,212.9445
371.1874,211.8969
371.6695,210.6669
372.1516,209.4326
372.6338,208.493
373.1159,208.2254
373.598,208.601
374.0801,208.6228
374.5622,207.8529
375.0443,207.2642
375.5265,207.4353
376.0086,207.9294
376.4907,208.0531
376.9728,207.4316
377.4549,206.342
377.937,205.3481
378.4192,204.4098
378.9013,203.6892
379.3834,203.5397
379.8655,203.4357
380.3476,202.8459
380.8297,201.6753
381.3119,200.548
381.794,200.3335
382.2761,201.0022
382.7582,200.9863
383.2403,199.731
383.7224,198.1319
384.2046,196.7232
384.6867,195.5013
385.1688,194.3876
385.6509,193.2773
386.133,192.2686
386.6151,191.7041
387.0973,191.7621
387.5794,191.6197
388.0615,190.5185
388.5436,188.991
389.0257,187.7493
389.5078,186.8764
389.99,186.4052
390.4721,186.7617
390.9542,187.7693
391.4363,187.9497
391.9184,186.5098
392.4005,184.4021
392.8827,182.834
393.3648,181.7746
393.8469,181.2443
394.329,181.7644
394.8111,182.6592
395.2932,182.8759
395.7754,182.254
396.2575,181.0829
396.7396,179.3977
397.2217,177.2709
397.7038,175.5358
398.1859,174.1836
398.6681,173.2542
399.1501,173.095
399.6323,173.4541
400.1144,173.4159
400.5965,172.4571
401.0786,170.9122
401.5607,169.754
402.0428,169.0855
402.525,168.5428
403.0071,168.0643
403.4892,167.6776
403.9713,167.4864
404.4534,167.4961
404.9355,167.4977
405.4177,167.2634
405.8998,166.7908
406.3819,166.0344
406.864,164.5522
407.3461,163.2449
407.8282,162.741
408.3104,162.7872
408.7925,162.616
409.2746,161.6883
409.7567,160.3018
410.2388,159.8366
410.7209,161.6786
411.2031,162.6507
411.6852,161.7923
412.1673,160.3488
412.6494,159.6327
413.1315,159.9286
413.6136,160.3958
414.0958,159.7305
414.5779,157.3864
415.06,156.1028
415.5421,156.9185
416.0242,157.8633
416.5063,158.3677
416.9885,158.3897
417.4706,157.9506
417.9527,156.9138
418.4348,155.5663
418.9169,154.9891
419.399,155.6751
419.8812,156.0404
420.3633,155.2416
420.8454,154.1132
421.3275,153.4456
421.8096,153.4356
422.2917,153.6213
422.7739,153.4548
423.256,152.9677
423.7381,152.8848
424.2202,153.6608
424.7023,154.3763
425.1844,154.2221
425.6666,153.4046
426.1487,152.6691
426.6308,152.46
427.1129,152.4505
427.595,152.169
428.0771,151.6038
428.5593,150.8829
429.0414,149.9301
429.5235,148.9445
430.0056,148.3829
430.4877,148.4992
430.9698,148.4655
431.452,147.5947
431.9341,146.3295
432.4162,145.6302
432.8983,145.7846
433.3804,146.1868
433.8625,146.1029
434.3447,145.4388
434.8268,145.0794
435.3089,145.3478
435.791,145.6779
436.2731,145.7343
436.7552,145.5282
437.2374,145.2045
437.7195,144.8595
438.2016,144.4357
438.6837,143.7139
439.1658,141.9211
439.6479,140.8274
440.1301,140.9799
440.6122,141.6429
441.0943,142.2164
441.5764,142.5374
442.0585,142.7021
442.5406,142.8647
443.0227,143.1063
443.5049,142.7545
443.987,141.0045
444.4691,139.4925
444.9512,138.7621
445.4333,138.6091
445.9154,138.6611
446.3976,138.7423
446.8797,138.8714
447.3618,139.1838
447.8439,139.9115
448.326,140.1231
448.8081,139.1531
449.2903,137.9686
449.7724,137.1053
450.2545,136.6173
450.7366,136.3361
451.2187,136.2817
451.7008,136.3566
452.183,136.0965
452.6651,135.3642
453.1472,134.6219
453.6293,134.039
454.1114,133.6437
454.5935,133.5928
455.0757,134.1906
455.5578,134.6081
456.0399,133.7068
456.522,131.9061
457.0041,131.2127
457.4862,132.5511
457.9684,134.4237
458.4505,134.7286
458.9326,133.4961
459.4147,132.4911
459.8968,131.8577
460.3789,131.7021
460.8611,132.4728
461.3432,133.9598
461.8253,135.0902
462.3074,135.1824
462.7895,134.4455
463.2716,133.7339
463.7538,132.9987
464.2359,132.3505
464.718,131.8482
465.2001,131.4075
465.6822,130.8461
466.1643,130.1752
466.6465,129.7296
467.1286,129.954
467.6107,130.974
468.0928,131.4545
468.5749,130.8758
469.057,130.3008
469.5392,130.1632
470.0213,130.1647
470.5034,129.7225
470.9855,128.5531
471.4676,127.2532
471.9497,127.0995
472.4319,128.5345
472.914,129.1562
473.3961,127.5975
473.8782,126.0033
474.3603,125.7759
474.8424,126.6785
475.3246,127.4636
475.8067,127.1787
476.2888,126.3548
476.7709,126.3774
477.253,127.4748
477.7351,127.9359
478.2173,126.4018
478.6994,124.0465
479.1815,122.7951
479.6636,122.9898
480.1457,123.3073
480.6278,122.8529
481.11,122.1345
481.592,122.2208
482.0742,123.3296
482.5563,124.5605
483.0384,125.192
483.5205,125.1892
484.0026,124.7798
484.4847,122.9524
484.9669,121.8329
485.449,123.0342
485.9311,125.3732
486.4132,126.6766
486.8953,126.1439
487.3774,124.7692
487.8596,124.2268
488.3417,125.0453
488.8238,125.2308
489.3059,124.211
489.788,123.2152
490.2701,122.879
490.7523,123.0529
491.2344,123.3374
491.7165,123.5363
492.1986,123.5625
492.6807,123.0814
493.1628,121.8092
493.645,120.8204
494.1271,120.3999
494.6092,120.3057
495.0913,120.5252
495.5734,120.9968
496.0555,121.4043
496.5377,121.3373
497.0198,121.0533
497.5019,121.4293
497.984,122.6896
498.4661,123.6138
498.9482,123.3208
499.4304,122.3287
499.9125,121.6638
500.3946,121.4799
500.8767,121.3676
501.3588,121.058
501.8409,120.6987
502.3231,120.6183
502.8052,120.8883
503.2873,121.1561
503.7694,121.0965
504.2515,120.6943
504.7336,120.1786
505.2158,119.3329
505.6979,118.628
506.18,118.2273
506.6621,118.0749
507.1442,118.1162
507.6263,118.3233
508.1085,118.62
508.5906,118.9126
509.0727,119.2546
509.5548,119.397
510.0369,119.2847
510.519,119.0249
511.0012,118.4785
511.4833,117.8363
511.9654,117.4607
512.4475,117.5692
512.9296,117.9072
513.4117,118.0756
513.8939,118.0897
514.376,117.7896
514.8581,116.7991
515.3402,115.827
515.8223,115.4254
516.3044,115.56
516.7866,115.9533
517.2687,116.9214
517.7508,117.8393
518.2329,117.606
518.715,116.3234
519.1971,115.5411
519.6793,116.1681
520.1614,117.5206
520.6435,118.0264
521.1256,117.5267
521.6077,116.8758
522.0898,116.0869
522.572,115.2942
523.0541,114.5935
523.5362,114.0061
524.0183,113.5089
524.5004,113.0637
524.9825,112.7298
525.4647,112.8406
525.9468,113.9811
526.4289,114.7279
526.911,114.8177
527.3931,114.5903
527.8752,114.13
528.3574,113.5669
528.8395,113.3124
529.3216,114.0236
529.8037,115.4066
530.2858,115.4786
530.7679,113.58
531.2501,111.9007
531.7322,111.5491
532.2143,111.8235
532.6964,112.0966
533.1785,112.2905
533.6606,112.3859
534.1428,112.4065
534.6249,112.3134
535.107,111.9063
535.5891,111.1231
536.0712,110.5325
536.5533,110.6561
537.0355,111.3555
537.5176,111.7197
537.9997,111.6381
538.4818,111.3934
538.9639,110.9044
539.446,110.3694
539.9282,110.0225
540.4103,109.9159
540.8924,110.01
541.3745,110.3477
541.8566,110.9557
542.3387,110.8687
542.8209,108.9394
543.3029,107.6881
543.785,108.1565
544.2672,109.3016
544.7493,109.9165
545.2314,109.6888
545.7135,109.2341
546.1956,109.2047
546.6777,109.5686
547.1599,109.9868
547.642,110.5339
548.1241,110.9375
548.6062,110.9035
549.0883,110.6379
549.5704,110.4258
550.0526,110.214
550.5347,110.277
551.0168,111.2186
551.4989,112.4835
551.981,112.7419
552.4631,111.6955
552.9453,110.442
553.4274,110.0197
553.9095,110.4333
554.3916,110.6476
554.8737,110.4217
555.3558,110.3147
555.838,110.6937
556.3201,111.1797
556.8022,111.2308
557.2843,110.7442
557.7664,110.1383
558.2485,109.882
558.7307,109.9847
559.2128,110.214
559.6949,110.8588
560.177,111.1955
560.6591,110.8328
561.1412,110.1364
561.6234,109.4796
562.1055,108.9403
562.5876,108.6388
563.0697,108.8736
563.5518,109.4435
564.0339,109.5508
564.5161,108.9795
564.9982,108.6221
565.4803,109.3932
565.9624,110.9007
566.4445,111.4141
566.9266,110.2487
567.4088,109.0745
567.8909,108.5436
568.373,108.2785
568.8551,107.6289
569.3372,106.5758
569.8193,105.8946
570.3015,106.4296
570.7836,108.0827
571.2657,108.9024
571.7478,108.0398
572.2299,107.4631
572.712,107.7056
573.1942,108.2106
573.6763,108.4623
574.1584,108.3816
574.6405,108.2209
575.1226,108.2515
575.6047,108.3913
576.0869,108.2231
576.569,107.6342
577.0511,107.2161
577.5332,107.3362
578.0153,107.7522
578.4974,108.0986
578.9796,108.3976
579.4617,108.499
579.9438,108.2417
580.4259,107.8199
580.908,107.3907
581.3901,106.997
581.8723,106.6807
582.3544,106.4247
582.8365,106.3543
583.3186,106.9314
583.8007,109.363
584.2828,110.5712
584.765,109.7002
585.2471,108.352
585.7292,107.4321
586.2113,106.9905
586.6934,106.7339
587.1755,106.4659
587.6577,106.2931
588.1398,106.5563
588.6219,107.3488
589.104,107.9183
589.5861,107.9034
590.0682,107.8077
590.5504,108.2355
591.0325,109.0723
591.5146,109.552
591.9967,109.1497
592.4788,108.5442
592.9609,108.3827
593.4431,108.5028
593.9252,108.4006
594.4073,107.8931
594.8894,107.0937
595.3715,106.0465
595.8536,104.4691
596.3358,103.976
596.8179,105.4001
597.3,106.8149
597.7821,107.738
598.2642,108.1599
598.7463,107.9756
599.2285,107.1796
599.7106,106.3638
600.1927,106.4093
600.6748,107.2695
601.1569,107.5305
601.639,106.7245
602.1212,106.1889
602.6033,107.0674
603.0854,108.5927
603.5675,109.6274
604.0496,110.0064
604.5317,110.0015
605.0139,109.4905
605.496,108.7959
605.9781,108.4264
606.4602,108.4186
606.9423,108.4456
607.4244,108.2668
607.9066,107.9431
608.3887,107.7561
608.8708,108.1422
609.3529,108.0211
609.835,106.6322
610.3171,105.3263
610.7993,105.2181
611.2814,106.1101
611.7635,107.0308
612.2456,107.403
612.7277,107.3698
613.2098,107.1997
613.692,106.8853
614.1741,106.4827
614.6562,105.9154
615.1383,105.3797
615.6204,105.0549
616.1025,104.9229
616.5847,104.9346
617.0668,105.3986
617.5489,105.6883
618.031,105.1967
618.5131,104.2762
618.9952,103.5986
619.4774,103.3708
619.9595,103.5041
620.4416,103.9703
620.9237,104.8234
621.4058,105.2005
621.8879,104.368
622.3701,103.9648
622.8522,104.9768
623.3343,106.2087
623.8164,106.2347
624.2985,104.8638
624.7806,103.4026
625.2628,103.108
625.7448,103.5062
626.2269,103.1934
626.709,102.0617
627.1912,101.1877
627.6733,101.0963
628.1554,101.5097
628.6375,101.9337
629.1196,102.3406
629.6017,102.8621
630.0839,103.8559
630.566,104.6707
631.0481,104.6127
631.5302,104.0261
632.0123,103.8431
632.4944,104.493
