Raman Shift,Intensity
90.32587,225.9941
90.80798,226.2197
91.2901,225.4747
91.77222,224.1936
92.25433,222.8852
92.73645,221.5321
93.21857,219.989
93.70068,218.3201
94.1828,216.4142
94.66492,213.8817
95.14703,210.1279
95.62915,205.7503
96.11127,202.3152
96.59338,199.8969
97.0755,198.1696
97.55762,197.0144
98.03973,196.4417
98.52185,195.5799
99.00397,193.8484
99.48608,191.2101
99.9682,189.1882
100.4503,188.0257
100.9324,187.1782
101.4146,185.356
101.8967,182.1689
102.3788,179.0766
102.8609,176.861
103.343,175.8004
103.8251,174.8149
104.3073,173.968
104.7894,173.1665
105.2715,171.9171
105.7536,170.0689
106.2357,167.9286
106.7178,165.601
107.2,162.3932
107.6821,160.0573
108.1642,159.3306
108.6463,160.4156
109.1284,160.2923
109.6105,158.1832
110.0927,155.1955
110.5748,152.3829
111.0569,149.2983
111.539,146.8253
112.0211,145.3654
112.5032,145.2582
112.9854,144.9397
113.4675,144.2478
113.9496,143.2184
114.4317,141.8889
114.9138,139.464
115.3959,137.3453
115.8781,136.3951
116.3602,137.6161
116.8423,138.1439
117.3244,136.4327
117.8065,133.1996
118.2886,130.2695
118.7708,127.6824
119.2529,126.0655
119.735,126.1476
120.2171,129.8864
120.6992,133.2336
121.1813,133.2043
121.6635,130.2645
122.1456,126.9476
122.6277,124.6049
123.1098,122.8792
123.5919,121.3037
124.074,119.8412
124.5562,118.3716
125.0383,116.6504
125.5204,114.6723
126.0025,112.9317
126.4846,111.9663
126.9667,111.5852
127.4489,111.312
127.931,111.0902
128.4131,110.8132
128.8952,110.2132
129.3773,109.2342
129.8594,108.1568
130.3416,107.386
130.8237,106.8738
131.3058,106.2188
131.7879,105.0079
132.27,103.4045
132.7521,102.2432
133.2343,101.6566
133.7164,101.4073
134.1985,101.1269
134.6806,100.8276
135.1627,100.3332
135.6448,99.44102
136.127,98.14034
136.6091,96.95232
137.0912,95.93333
137.5733,95.07715
138.0554,94.32487
138.5375,93.70651
139.0197,93.0987
139.5018,92.36797
139.9839,91.4721
140.466,90.67467
140.9481,90.05046
141.4302,89.58449
141.9124,89.03901
142.3945,88.39151
142.8766,87.69946
143.3587,86.9978
143.8408,86.22575
144.3229,85.58469
144.8051,85.15733
145.2872,84.97487
145.7693,84.73991
146.2514,84.47848
146.7335,84.14656
147.2156,83.66419
147.6978,82.81724
148.1799,82.09289
148.662,81.66444
149.1441,81.74804
149.6262,81.54491
150.1083,80.82925
150.5905,79.86719
151.0726,79.12086
151.5547,78.89906
152.0368,78.63398
152.5189,78.13079
153.001,77.17671
153.4832,76.35381
153.9653,75.68236
154.4474,75.1658
154.9295,74.81246
155.4116,75.08339
155.8937,75.18516
156.3759,74.72038
156.858,72.98523
157.3401,71.5573
157.8222,70.73691
158.3043,70.46017
158.7864,70.49123
159.2686,71.21633
159.7507,71.96728
160.2328,72.31373
160.7149,71.6702
161.197,71.09638
161.6791,70.91689
162.1613,71.10422
162.6434,71.46276
163.1255,72.13825
163.6076,72.85464
164.0897,73.36604
164.5718,73.2945
165.054,73.24644
165.5361,73.62553
166.0182,74.41427
166.5003,75.08381
166.9824,75.26473
167.4645,75.19153
167.9467,75.15227
168.4288,75.06077
168.9109,75.17543
169.393,75.63919
169.8751,76.45898
170.3572,77.68794
170.8394,79.61044
171.3215,81.96163
171.8036,84.26181
172.2857,86.39394
172.7678,88.34946
173.2499,89.89359
173.7321,90.92025
174.2142,92.34751
174.6963,95.54784
175.1784,99.83189
175.6605,103.5817
176.1426,105.3913
176.6248,106.3439
177.1069,107.941
177.589,110.418
178.0711,113.1339
178.5532,115.4909
179.0353,117.547
179.5175,119.4191
179.9996,121.0251
180.4817,122.5238
180.9638,124.2597
181.4459,126.2955
181.928,128.527
182.4102,130.9542
182.8923,133.5071
183.3744,136.034
183.8565,138.2728
184.3386,140.3826
184.8207,142.6968
185.3029,145.2138
185.785,148.0806
186.2671,151.7091
186.7492,156.0642
187.2313,160.6859
187.7134,165.2409
188.1956,169.8091
188.6777,174.5758
189.1598,179.6925
189.6419,184.9585
190.124,189.8662
190.6061,194.4563
191.0883,199.1807
191.5704,204.5298
192.0525,210.4851
192.5346,216.3712
193.0167,222.0083
193.4988,227.3877
193.981,231.9672
194.4631,235.483
194.9452,239.1732
195.4273,243.207
195.9094,247.5707
196.3915,251.8633
196.8737,256.1304
197.3558,260.226
197.8379,263.5792
198.32,266.0783
198.8021,268.3579
199.2842,270.8425
199.7664,273.5316
200.2485,276.5703
200.7306,280.0424
201.2127,283.9039
201.6948,287.9443
202.1769,292.1082
202.6591,296.6418
203.1412,301.849
203.6233,307.8545
204.1054,313.7917
204.5875,319.5331
205.0696,325.07
205.5518,330.2836
206.0339,335.21
206.516,339.7585
206.9981,344.2894
207.4802,349.2823
207.9623,351.93
208.4445,351.3258
208.9266,347.5676
209.4087,342.8719
209.8908,337.0815
210.3729,330.6089
210.855,323.8334
211.3372,316.8054
211.8193,309.5059
212.3014,301.7328
212.7835,293.546
213.2656,286.0156
213.7477,279.2459
214.2299,272.9341
214.712,266.7087
215.1941,260.2292
215.6762,254.6209
216.1583,250.2673
216.6404,247.2668
217.1226,244.1805
217.6047,240.8979
218.0868,237.6532
218.5689,234.7011
219.051,232.1131
219.5331,229.6023
220.0153,226.9523
220.4974,224.0787
220.9795,221.9584
221.4616,220.8261
221.9437,220.1778
222.4258,219.4138
222.908,218.5925
223.3901,217.5338
223.8722,216.0777
224.3543,214.0956
224.8364,212.7225
225.3185,212.2101
225.8007,212.0759
226.2828,211.6811
226.7649,210.8063
227.247,210.0977
227.7291,209.7935
228.2112,209.961
228.6934,209.9433
229.1755,209.6997
229.6576,209.3051
230.1397,208.801
230.6218,207.9142
231.1039,207.4382
231.5861,207.8267
232.0682,209.3699
232.5503,209.7214
233.0324,208.1824
233.5145,206.0597
233.9966,205.0539
234.4788,205.8789
234.9609,206.5657
235.443,206.579
235.9251,205.819
236.4072,205.0808
236.8893,204.2863
237.3715,203.5732
237.8536,203.1584
238.3357,203.3033
238.8178,203.2625
239.2999,202.7426
239.782,201.6313
240.2642,200.9366
240.7463,200.9082
241.2284,201.0777
241.7105,200.8628
242.1926,200.0821
242.6747,199.2348
243.1569,198.3819
243.639,197.4838
244.1211,196.9155
244.6032,196.9041
245.0853,197.0148
245.5674,196.688
246.0496,195.5396
246.5317,194.6772
247.0138,194.4562
247.4959,194.9633
247.978,195.1025
248.4601,194.6255
248.9423,194.0361
249.4244,193.9624
249.9065,194.8555
250.3886,195.37
250.8707,195.0669
251.3528,193.8977
251.835,193.1409
252.3171,192.9078
252.7992,192.9704
253.2813,193.1313
253.7634,193.4589
254.2455,193.7249
254.7277,193.8716
255.2098,193.895
255.6919,193.8972
256.174,193.8489
256.6561,193.8082
257.1382,193.8054
257.6204,193.7695
258.1025,193.954
258.5846,194.5135
259.0667,195.4185
259.5488,195.9176
260.0309,195.7521
260.5131,195.5473
260.9952,195.9386
261.4773,197.2549
261.9594,198.2438
262.4415,198.5891
262.9236,198.3743
263.4058,198.3916
263.8879,198.6464
264.37,199.1283
264.8521,199.9673
265.3342,201.4083
265.8163,202.3172
266.2985,202.3159
266.7806,201.6198
267.2627,201.5202
267.7448,202.2177
268.2269,203.0892
268.709,203.6142
269.1912,203.6407
269.6733,204.0253
270.1554,205.0215
270.6375,206.4159
271.1196,207.2392
271.6017,207.2912
272.0839,207.3193
272.566,207.8894
273.0481,209.1145
273.5302,210.1641
274.0123,210.9971
274.4944,211.5939
274.9766,211.8363
275.4587,211.6409
275.9408,211.4243
276.4229,211.4548
276.905,211.7531
277.3871,212.0931
277.8693,212.5547
278.3514,212.9453
278.8335,212.7004
279.3156,211.6973
279.7977,210.7753
280.2798,210.5495
280.762,211.0275
281.2441,210.9908
281.7262,210.2418
282.2083,209.2053
282.6904,208.7004
283.1725,208.7666
283.6547,208.7743
284.1368,208.2698
284.6189,207.327
285.101,206.8498
285.5831,206.9421
286.0652,207.261
286.5474,207.3768
287.0295,207.2899
287.5116,207.0039
287.9937,206.2571
288.4758,205.2154
288.9579,205.0417
289.4401,205.8702
289.9222,206.857
290.4043,206.8545
290.8864,205.9852
291.3685,205.2301
291.8506,205.0241
292.3328,205.2028
292.8149,205.3729
293.297,205.5497
293.7791,205.5492
294.2612,204.9661
294.7433,203.9781
295.2255,203.3169
295.7076,203.365
296.1897,203.8139
296.6718,204.0665
297.1539,204.1265
297.636,204.1805
298.1182,204.4484
298.6003,204.8337
299.0824,205.0696
299.5645,204.9301
300.0466,204.7781
300.5287,205.2686
301.0109,206.3119
301.493,207.2906
301.9751,207.5155
302.4572,207.4149
302.9393,207.7511
303.4214,208.8434
303.9036,210.1433
304.3857,211.0304
304.8678,211.6078
305.3499,212.2702
305.832,213.2917
306.3141,214.5173
306.7963,215.7657
307.2784,217.045
307.7605,218.2722
308.2426,219.2531
308.7247,220.1177
309.2068,221.1795
309.689,222.5911
310.1711,224.2691
310.6532,226.1611
311.1353,228.2741
311.6174,230.4714
312.0995,232.8883
312.5817,235.2695
313.0638,237.2411
313.5459,238.1019
314.028,238.9346
314.5101,240.4603
314.9922,242.7528
315.4744,245.186
315.9565,247.4906
316.4386,249.7642
316.9207,252.0872
317.4028,254.8314
317.8849,257.349
318.3671,259.221
318.8492,260.499
319.3313,261.9213
319.8134,263.6549
320.2955,265.6845
320.7776,267.974
321.2598,271.3951
321.7419,274.1585
322.224,275.2804
322.7061,275.1516
323.1882,275.8297
323.6703,278.3997
324.1525,281.4094
324.6346,284.0259
325.1167,285.6071
325.5988,287.5768
326.0809,290.3833
326.563,293.6994
327.0452,296.6383
327.5273,298.065
328.0094,300.0148
328.4915,303.3055
328.9736,308.6196
329.4557,313.6699
329.9379,318.093
330.42,322.3884
330.9021,327.308
331.3842,333.3776
331.8663,339.4201
332.3484,345.236
332.8306,350.7536
333.3127,355.8247
333.7948,360.451
334.2769,364.6395
334.759,368.2817
335.2411,371.1484
335.7233,374.1358
336.2054,377.9083
336.6875,382.3082
337.1696,383.9873
337.6517,382.2593
338.1339,379.1592
338.616,376.3588
339.0981,374.0135
339.5802,371.0795
340.0623,367.2809
340.5444,362.8417
341.0266,358.7773
341.5087,355.1019
341.9908,351.4354
342.4729,347.6322
342.955,343.7177
343.4371,339.0321
343.9193,333.3932
344.4014,327.2782
344.8835,321.5855
345.3656,316.315
345.8477,311.2838
346.3298,306.3897
346.812,301.6357
347.2941,297.2955
347.7762,293.3791
348.2583,289.6592
348.7404,285.7812
349.2225,281.8267
349.7047,278.1311
350.1868,274.7992
350.6689,271.8284
351.151,269.2143
351.6331,266.9645
352.1152,264.9297
352.5974,263.0293
353.0795,261.248
353.5616,259.5572
354.0437,257.9336
354.5258,256.4209
355.0079,255.0726
355.4901,253.8747
355.9722,252.7354
356.4543,251.8611
356.9364,250.8979
357.4185,249.36
357.9006,246.9103
358.3828,244.5817
358.8649,243.1831
359.347,242.3576
359.8291,241.3676
360.3112,239.7492
360.7933,237.9766
361.2755,236.2708
361.7576,234.6418
362.2397,233.1558
362.7218,231.8536
363.2039,230.6992
363.686,229.6529
364.1682,228.7684
364.6503,227.9193
365.1324,227.0759
365.6145,226.2321
366.0966,225.4486
366.5787,224.9147
367.0609,224.3336
367.543,223.5153
368.0251,222.0596
368.5072,220.8157
368.9893,219.8709
369.4714,219.1891
369.9536,218.694
370.4357,218.4526
370.9178,218.3291
371.3999,218.2926
371.882,218.4135
372.3641,218.429
372.8463,218.2599
373.3284,218.0363
373.8105,217.9974
374.2926,218.3021
374.7747,218.4158
375.2568,218.0732
375.739,217.2631
376.2211,216.8974
376.7032,217.042
377.1853,217.4812
377.6674,218.1376
378.1495,219.0732
378.6317,219.6427
379.1138,219.6146
379.5959,219.2107
380.078,219.0643
380.5601,219.1781
381.0422,219.5547
381.5244,220.3237
382.0065,221.4114
382.4886,222.3684
382.9707,223.1643
383.4528,223.812
383.9349,224.2771
384.4171,224.5941
384.8992,224.9406
385.3813,225.4138
385.8634,225.9745
386.3455,226.5825
386.8276,227.2347
387.3098,227.8833
387.7919,228.3234
388.274,228.7576
388.7561,229.5579
389.2382,231.153
389.7203,232.8618
390.2025,233.9416
390.6846,234.5436
391.1667,235.4249
391.6488,237.1867
392.1309,239.3013
392.613,241.3626
393.0952,243.3042
393.5773,245.0943
394.0594,246.6026
394.5415,247.9453
395.0236,249.3373
395.5057,250.5994
395.9879,252.1421
396.47,254.3227
396.9521,257.3355
397.4342,259.8659
397.9163,261.2006
398.3984,262.2115
398.8806,263.6939
399.3627,266.4292
399.8448,268.8005
400.3269,270.505
400.809,271.6364
401.2911,272.8348
401.7733,274.0581
402.2554,275.4059
402.7375,276.9532
403.2196,278.8114
403.7017,280.6001
404.1838,282.293
404.666,283.9217
405.1481,285.5397
405.6302,287.2117
406.1123,288.66
406.5944,289.6289
407.0765,290.1692
407.5587,291.3582
408.0408,293.3224
408.5229,295.4659
409.005,297.0508
409.4871,298.1295
409.9692,299.5639
410.4514,301.5436
410.9335,303.9897
411.4156,306.843
411.8977,310.0595
412.3798,313.447
412.8619,316.797
413.3441,320.1976
413.8262,323.9907
414.3083,328.3369
414.7904,332.5293
415.2725,335.5938
415.7546,338.0301
416.2368,340.9523
416.7189,345.5797
417.201,350.3346
417.6831,354.013
418.1652,356.5972
418.6473,358.764
419.1295,360.8974
419.6116,362.7433
420.0937,364.0643
420.5758,364.9773
421.0579,365.1316
421.54,364.1813
422.0222,362.3963
422.5043,360.4144
422.9864,358.7909
423.4685,356.6694
423.9506,353.5639
424.4327,349.1005
424.9149,344.894
425.397,341.1693
425.8791,337.6474
426.3612,333.9995
426.8433,330.1046
427.3254,326.3127
427.8076,322.7313
428.2897,319.29
428.7718,315.6598
429.2539,311.6822
429.736,307.9111
430.2181,304.9088
430.7003,302.8865
431.1824,300.1139
431.6645,296.3113
432.1466,292.1025
432.6287,288.5161
433.1108,285.5874
433.593,283.12
434.0751,281.3055
434.5572,279.8719
435.0393,277.7824
435.5214,275.0319
436.0035,272.2878
436.4857,270.3008
436.9678,268.8062
437.4499,267.1032
437.932,264.9942
438.4141,262.7155
438.8962,260.4043
439.3784,258.1126
439.8605,255.9966
440.3426,254.2571
440.8247,252.6537
441.3068,250.905
441.7889,248.9776
442.2711,247.2224
442.7532,246.1261
443.2353,245.1681
443.7174,243.808
444.1995,241.3779
444.6816,239.0678
445.1638,237.024
445.6459,235.3204
446.128,234.1836
446.6101,234.0336
447.0922,234.1402
447.5743,234.2122
448.0565,234.2434
448.5386,234.2316
449.0207,234.0798
449.5028,233.9469
449.9849,234.0623
450.467,234.5546
450.9492,234.9984
451.4313,235.2237
451.9134,235.3031
452.3955,235.7718
452.8776,236.6678
453.3597,237.7962
453.8419,239.1542
454.324,240.7198
454.8061,242.0105
455.2882,242.9864
455.7703,243.6468
456.2524,243.8233
456.7346,243.5903
457.2167,243.4369
457.6988,243.7688
458.1809,244.22
458.663,244.0637
459.1451,243.3329
459.6273,242.5682
460.1094,242.4579
460.5915,242.4644
461.0736,241.8487
461.5557,240.2559
462.0378,238.4301
462.52,236.5958
463.0021,234.8834
463.4842,233.5853
463.9663,233.5083
464.4484,233.2686
464.9305,232.0523
465.4127,229.759
465.8948,227.7187
466.3769,226.2898
466.859,225.174
467.3411,224.1651
467.8232,223.4777
468.3054,222.5574
468.7875,221.0805
469.2696,219.42
469.7517,218.5832
470.2338,219.0884
470.7159,219.4568
471.1981,219.0879
471.6802,217.9421
472.1623,217.0813
472.6444,216.5685
473.1265,216.1935
473.6086,215.7169
474.0908,215.1431
474.5729,214.7982
475.055,214.7729
475.5371,214.9507
476.0192,215.1986
476.5013,215.4931
476.9835,215.659
477.4656,215.4862
477.9477,215.1621
478.4298,214.9055
478.9119,214.7197
479.394,214.8351
479.8762,215.5929
480.3583,216.7129
480.8404,217.8407
481.3225,219.0085
481.8046,219.9958
482.2867,220.4403
482.7689,220.6025
483.251,221.1486
483.7331,222.5736
484.2152,224.2049
484.6973,225.7467
485.1794,227.1523
485.6616,228.6526
486.1437,230.153
486.6258,231.826
487.1079,233.8169
487.59,236.1346
488.0721,238.7958
488.5543,241.9376
489.0364,245.3715
489.5185,248.4361
490.0006,250.8777
490.4827,253.6641
490.9648,257.3243
491.447,261.8151
491.9291,265.9331
492.4112,269.5743
492.8933,273.2445
493.3754,277.4972
493.8575,282.2429
494.3397,287.0122
494.8218,291.6144
495.3039,296.2927
495.786,301.4023
496.2681,306.8334
496.7502,312.181
497.2324,317.266
497.7145,322.2079
498.1966,327.1834
498.6787,332.243
499.1608,337.0098
499.6429,341.5845
500.1251,345.6474
500.6072,349.0317
501.0893,351.5199
501.5714,353.4938
502.0535,355.0322
502.5356,356.1195
503.0178,356.7412
503.4999,357.1251
503.982,356.797
504.4641,355.5483
504.9462,353.3616
505.4283,351.0532
505.9105,348.9872
506.3926,346.2686
506.8747,342.0589
507.3568,336.1744
507.8389,330.1481
508.321,324.1455
508.8032,318.1922
509.2853,312.3918
509.7674,306.7357
510.2495,301.1505
510.7316,295.6631
511.2137,290.1405
511.6959,284.0262
512.178,277.4263
512.6601,271.0842
513.1422,265.6367
513.6243,260.7481
514.1064,256.0912
514.5886,251.7287
515.0707,247.1583
515.5528,241.498
516.0349,235.5974
516.517,230.5921
516.9991,227.4362
517.4813,224.6434
517.9634,221.7798
518.4455,218.8621
518.9276,216.0967
519.4097,213.5511
519.8918,211.1508
520.374,208.8746
520.8561,206.64
521.3382,204.7662
521.8203,203.3475
522.3024,202.1726
522.7845,200.9553
523.2667,199.647
523.7488,198.5764
524.2309,197.9072
524.713,197.4344
525.1951,196.5154
525.6772,195.1609
526.1594,194.024
526.6415,193.7012
527.1236,193.8097
527.6057,193.4546
528.0878,192.607
528.5699,191.6765
529.0521,190.9349
529.5342,190.349
530.0163,189.8925
530.4984,189.6284
530.9805,189.3748
531.4626,188.9688
531.9448,188.5101
532.4269,188.1929
532.909,188.1959
533.3911,188.2222
533.8732,188.2424
534.3553,188.2559
534.8375,187.9647
535.3196,186.9371
535.8017,186.0252
536.2838,185.7715
536.7659,186.5667
537.248,186.8745
537.7302,186.5351
538.2123,185.9062
538.6944,185.5508
539.1765,185.4953
539.6586,185.2783
540.1407,184.6722
540.6229,183.923
541.105,183.6714
541.5871,183.8837
542.0692,184.1988
542.5513,184.4419
543.0334,184.6339
543.5156,184.8268
543.9977,185.031
544.4798,185.1421
544.9619,184.7884
545.444,184.4262
545.9261,184.6091
546.4083,186.2148
546.8904,187.3251
547.3725,186.9565
547.8546,185.6487
548.3367,184.5546
548.8188,183.6274
549.301,183.1684
549.7831,183.4478
550.2652,184.4485
550.7473,184.9523
551.2294,184.7228
551.7115,184.3973
552.1937,184.3742
552.6758,184.685
553.1579,185.0547
553.64,185.5147
554.1221,185.9274
554.6042,186.051
555.0864,185.9337
555.5685,185.8652
556.0506,185.9282
556.5327,186.0865
557.0148,186.3941
557.4969,186.781
557.9791,186.9887
558.4612,186.6728
558.9433,186.2457
559.4254,185.9995
559.9075,185.9519
560.3896,186.1166
560.8718,186.7218
561.3539,187.4028
561.836,187.8968
562.3181,188.2207
562.8002,188.2656
563.2823,187.8488
563.7645,187.2427
564.2466,186.8579
564.7287,186.7597
565.2108,186.7604
565.6929,186.8584
566.175,187.019
566.6572,187.0253
567.1393,186.8349
567.6214,186.7916
568.1035,187.3113
568.5856,188.1685
569.0677,188.4301
569.5499,188.0318
570.032,187.501
570.5141,187.2945
570.9962,187.295
571.4783,187.3136
571.9604,187.2961
572.4426,187.3024
572.9247,187.4388
573.4068,187.6173
573.8889,187.6831
574.371,187.3148
574.8531,187.1009
575.3353,187.3364
575.8174,187.9875
576.2995,188.4881
576.7816,188.7619
577.2637,188.9542
577.7458,189.1185
578.228,189.2458
578.7101,189.3827
579.1922,189.5216
579.6743,189.6857
580.1564,189.8645
580.6385,190.0638
581.1207,190.4664
581.6028,191.179
582.0849,191.9293
582.567,192.1786
583.0491,192.0902
583.5313,192.2091
584.0134,192.9341
584.4955,193.8787
584.9776,194.748
585.4597,195.5402
585.9418,196.2602
586.424,196.7895
586.9061,197.3355
587.3882,198.0485
587.8703,198.9875
588.3524,199.9028
588.8345,200.7877
589.3167,201.6219
589.7988,202.3446
590.2809,202.7266
590.763,203.5684
591.2451,205.0923
591.7272,206.9423
592.2094,208.3742
592.6915,209.3359
593.1736,210.521
593.6557,212.1619
594.1378,214.1792
594.6199,216.472
595.1021,218.9993
595.5842,221.5855
596.0663,224.0067
596.5484,226.4709
597.0305,229.2621
597.5126,232.4062
597.9948,235.7548
598.4769,239.1728
598.959,242.7465
599.4411,246.5607
599.9232,250.4872
600.4053,254.9082
600.8875,259.9897
601.3696,265.5341
601.8517,271.2347
602.3338,276.8333
602.8159,283.0154
603.298,290.0058
603.7802,297.6568
604.2623,305.6266
604.7444,313.7958
605.2265,322.6968
605.7086,332.9182
606.1907,344.0807
606.6729,354.9365
607.155,365.4478
607.6371,376.2704
608.1192,387.7068
608.6013,399.748
609.0834,412.3918
609.5656,426.0283
610.0477,439.1285
610.5298,451.3006
611.0119,462.2923
611.494,471.9629
611.9761,481.214
612.4583,487.8784
612.9404,491.6452
613.4225,492.6953
613.9046,491.289
614.3867,487.4398
614.8688,481.1365
615.351,471.968
615.8331,460.2543
616.3152,447.6651
616.7973,434.2037
617.2794,420.2133
617.7615,405.7292
618.2437,391.0632
618.7258,376.6342
619.2079,362.3226
619.69,348.6212
620.1721,335.6735
620.6542,323.64
621.1364,312.8081
621.6185,303.2666
622.1006,294.5716
622.5827,286.5561
623.0648,279.166
623.5469,272.3232
624.0291,266.2049
624.5112,260.4369
624.9933,254.8999
625.4754,249.6635
625.9575,245.0424
626.4396,241.0057
626.9218,237.6136
627.4039,235.0358
627.886,233.1444
628.3681,231.1971
628.8502,229.1916
629.3323,227.1593
629.8145,224.8847
630.2966,222.6632
630.7787,221.1208
631.2608,220.3547
631.7429,219.723
632.225,218.8834
632.7072,217.8619
633.1893,216.6395
633.6714,214.9652
634.1535,213.5302
634.6356,212.552
635.1177,211.9193
635.5999,211.4476
636.082,211.3549
636.5641,211.0427
637.0462,210.3102
637.5283,209.3202
638.0104,208.6136
638.4926,208.2139
638.9747,207.9223
639.4568,207.6873
639.9389,207.4847
640.421,207.1991
640.9031,206.839
641.3853,206.5567
641.8674,206.5751
642.3495,206.679
642.8316,206.5578
643.3137,206.1465
643.7958,205.8436
644.278,205.8856
644.7601,206.1008
645.2422,206.3379
645.7243,206.5157
646.2064,206.8077
646.6885,207.3801
647.1707,207.9689
647.6528,208.1883
648.1349,207.9232
648.617,207.6524
649.0991,207.4524
649.5812,207.3022
650.0634,207.1006
650.5455,206.8598
651.0276,206.7842
651.5097,207.1618
651.9918,207.6452
652.4739,207.565
652.9561,207.0389
653.4382,206.6762
653.9203,207.0417
654.4024,207.54
654.8845,207.7732
655.3666,207.686
655.8488,207.5197
656.3309,207.2564
656.813,206.985
657.2951,206.7576
657.7772,206.5803
658.2593,206.4449
658.7415,206.3874
659.2236,206.3145
659.7057,206.0717
660.1878,205.6658
660.6699,205.3804
661.152,205.2778
661.6342,205.2978
662.1163,205.4439
662.5984,205.6497
663.0805,205.738
663.5626,205.5641
664.0447,205.3211
664.5269,205.1023
665.009,204.9192
665.4911,204.7993
665.9732,205.0189
666.4553,205.0416
666.9374,204.4641
667.4196,203.3565
667.9017,202.8686
668.3838,203.3772
668.8659,203.7967
669.348,203.4738
669.8301,202.4243
670.3123,201.7648
670.7944,201.5176
671.2765,201.4852
671.7586,201.6326
672.2407,201.8399
672.7228,201.8072
673.205,201.4619
673.6871,201.0675
674.1692,200.7014
674.6513,200.4388
675.1334,200.387
675.6155,200.8045
676.0977,201.0754
676.5798,200.9535
677.0619,200.6348
677.544,200.4277
678.0261,200.4773
678.5082,200.3086
678.9904,199.7054
679.4725,198.9363
679.9546,198.8159
680.4367,199.3562
680.9188,199.7008
681.4009,199.3634
681.8831,198.687
682.3652,198.3191
682.8473,198.2007
683.3294,198.0485
683.8115,197.5006
684.2936,197.0059
684.7758,197.0904
685.2579,197.7715
685.74,197.9132
686.2221,196.3239
686.7042,194.8817
687.1863,194.6388
687.6685,195.9791
688.1506,196.8343
688.6327,197.0613
689.1148,197.1167
689.5969,197.4995
690.079,198.1667
690.5612,198.3762
691.0433,197.9904
691.5254,197.4478
692.0075,197.1521
692.4896,197.0855
692.9717,197.2849
693.4539,198.0203
693.936,198.4975
694.4181,198.0267
694.9002,197.058
695.3823,196.287
695.8644,195.779
696.3466,195.6248
696.8287,196.0057
697.3108,196.7035
697.7929,197.1146
698.275,197.1599
698.7571,197.2529
699.2393,197.6051
699.7214,198.0592
700.2035,198.0355
700.6856,197.5908
701.1677,197.2134
701.6498,197.2088
702.132,197.4097
702.6141,197.681
703.0962,198.0034
703.5783,198.2699
704.0604,198.3447
704.5425,198.4159
705.0247,198.6011
705.5068,198.9364
705.9889,199.2177
706.471,199.4416
706.9531,199.6088
707.4352,199.6811
707.9174,199.6364
708.3995,199.8015
708.8816,200.2381
709.3637,200.6212
709.8458,200.4387
710.3279,199.954
710.8101,199.9149
711.2922,200.5802
711.7743,201.1428
712.2564,200.8064
712.7385,200.0977
713.2206,199.6412
713.7028,199.6606
714.1849,199.8721
714.667,200.3489
715.1491,200.9433
715.6312,201.4629
716.1133,201.8689
716.5955,202.2822
717.0776,202.6823
717.5597,203.1405
718.0418,203.8112
718.5239,204.6865
719.006,205.6744
719.4882,206.9313
719.9703,208.0638
720.4524,208.4971
720.9345,208.39
721.4166,208.2326
721.8987,208.0894
722.3809,208.0994
722.863,208.3503
723.3451,208.8289
723.8272,209.4084
724.3093,210.0416
724.7914,210.8336
725.2736,211.8977
725.7557,213.1954
726.2378,214.1982
726.7199,214.8978
727.202,215.4954
727.6841,216.0072
728.1663,216.5566
728.6484,217.4749
729.1305,218.7595
729.6126,220.047
730.0947,221.0392
730.5768,221.9659
731.059,222.9881
731.5411,224.1148
732.0232,225.3906
732.5053,226.8659
732.9874,228.451
733.4695,230.1177
733.9517,231.8726
734.4338,233.6715
734.9159,235.5336
735.398,237.4052
735.8801,239.1894
736.3622,240.9264
736.8444,242.858
737.3265,245.0906
737.8086,247.1815
738.2907,248.6902
738.7728,249.8017
739.2549,250.7211
739.7371,251.3313
740.2192,252.0612
740.7013,253.3551
741.1834,254.6933
741.6655,255.3948
742.1476,255.206
742.6298,254.9474
743.1119,254.6704
743.594,254.4155
744.0761,254.3956
744.5582,254.5502
745.0403,254.2826
745.5225,253.344
746.0046,252.0072
746.4867,250.4903
746.9688,248.838
747.4509,247.1618
747.933,245.5228
748.4152,243.8534
748.8973,242.0238
749.3794,240.1165
749.8615,238.475
750.3436,237.292
750.8257,236.0076
751.3079,234.5084
751.79,232.8116
752.2721,230.9506
752.7542,228.9205
753.2363,227.0193
753.7184,225.4487
754.2006,224.0775
754.6827,222.6796
755.1648,221.282
755.6469,220.0532
756.129,219.2609
756.6111,218.4789
757.0933,217.3495
757.5754,215.9173
758.0575,214.8661
758.5396,214.5668
759.0217,214.1399
759.5038,213.1177
759.986,211.5971
760.4681,210.697
760.9502,210.4673
761.4323,210.3092
761.9144,209.7798
762.3965,209.0686
762.8787,208.5497
763.3608,208.2175
763.8429,207.8452
764.325,207.2036
764.8071,206.55
765.2892,206.0791
765.7714,205.8232
766.2535,205.5765
766.7356,205.3607
767.2177,205.108
767.6998,204.7475
768.1819,204.2615
768.6641,204.0091
769.1462,204.0364
769.6283,203.9706
770.1104,203.3969
770.5925,202.5371
771.0746,201.7226
771.5568,200.9756
772.0389,200.5723
772.521,201.1107
773.0031,201.7738
773.4852,201.8825
773.9673,201.1267
774.4495,200.4985
774.9316,199.9581
775.4137,199.6409
775.8958,199.7952
776.3779,200.4974
776.86,200.5829
777.3422,199.9468
777.8243,199.1148
778.3064,198.4809
778.7885,198.0651
779.2706,197.9828
779.7527,198.3175
780.2349,198.5819
780.717,198.5002
781.1991,198.2131
781.6812,197.8154
782.1633,197.1026
782.6454,196.7518
783.1276,196.9496
783.6097,197.2881
784.0918,197.3095
784.5739,197.004
785.056,196.9567
785.5381,197.2536
786.0203,197.6479
786.5024,197.9355
786.9845,198.1115
787.4666,198.1808
787.9487,198.1573
788.4308,197.9765
788.913,197.2556
789.3951,196.5409
789.8772,196.4188
790.3593,197.405
790.8414,198.106
791.3235,198.4415
791.8057,198.5746
792.2878,198.6604
792.7699,198.7013
793.252,198.7309
793.7341,198.7472
794.2162,198.7807
794.6984,198.8361
795.1805,198.9408
795.6626,199.1462
796.1447,199.5141
796.6268,199.8776
797.1089,200.194
797.5911,200.4728
798.0732,200.748
798.5553,201.1476
799.0374,201.1958
799.5195,200.6994
800.0016,200.1677
800.4838,200.3149
800.9659,201.0402
801.448,201.7805
801.9301,202.451
802.4122,203.0327
802.8943,203.5295
803.3765,203.9075
803.8586,204.1011
804.3407,203.8645
804.8228,203.8591
805.3049,204.437
805.787,205.1826
806.2692,205.7147
806.7513,206.0303
807.2334,206.0879
807.7155,205.813
808.1976,205.4668
808.6797,205.4036
809.1619,205.5439
809.644,205.6806
810.1261,205.7911
810.6082,205.8022
811.0903,205.5914
811.5724,205.2861
812.0546,205.0277
812.5367,204.8942
813.0188,204.7329
813.5009,204.5274
813.983,204.3085
814.4651,204.1594
814.9473,204.0986
815.4294,203.7687
815.9115,203.0911
816.3936,202.3463
816.8757,201.8403
817.3578,201.4994
817.84,201.1848
818.3221,200.8581
818.8042,200.5775
819.2863,200.269
819.7684,200.0712
820.2505,200.1561
820.7327,200.7916
821.2148,201.0721
821.6969,200.8943
822.179,200.5352
822.6611,200.3575
823.1432,200.29
823.6254,199.8433
824.1075,198.9275
824.5896,197.9436
825.0717,197.0522
825.5538,196.4097
826.0359,196.3246
826.5181,197.1074
827.0002,197.5306
827.4823,196.9702
827.9644,196.2424
828.4465,195.8914
828.9286,196.0358
829.4108,195.9987
829.8929,195.7516
830.375,195.4645
830.8571,195.3097
831.3392,195.2315
831.8214,195.0983
832.3035,194.8961
832.7856,194.6985
833.2677,194.5873
833.7498,194.471
834.2319,194.2675
834.7141,193.9312
835.1962,193.635
835.6783,193.3492
836.1604,193.1443
836.6425,193.1627
837.1246,193.3681
837.6068,193.1033
838.0889,192.3606
838.571,191.7628
839.0531,191.9402
839.5352,192.423
840.0173,192.7424
840.4995,192.8654
840.9816,192.8863
841.4637,192.6511
841.9458,192.506
842.4279,192.6223
842.91,192.9942
843.3922,193.3048
843.8743,193.5188
844.3564,193.8548
844.8385,194.7876
845.3206,195.8389
845.8027,195.6665
846.2849,194.4675
846.767,193.3463
847.2491,192.9882
847.7312,192.8258
848.2133,192.565
848.6954,192.2082
849.1776,191.8898
849.6597,191.5308
850.1418,191.4055
850.6239,191.7414
851.106,192.3139
851.5881,192.2128
852.0703,191.5323
852.5524,191.0603
853.0345,191.3572
853.5166,191.8813
853.9987,192.1306
854.4808,192.2127
854.963,192.405
855.4451,192.9746
855.9272,193.4155
856.4093,193.5396
856.8914,193.5096
857.3735,193.8112
857.8557,194.5027
858.3378,194.7525
858.8199,194.2146
859.302,193.3992
859.7841,193.0209
860.2662,192.9473
860.7484,192.9187
861.2305,192.892
861.7126,192.8296
862.1947,192.5238
862.6768,192.2673
863.1589,192.5483
863.6411,193.8352
864.1232,194.226
864.6053,193.3163
865.0874,192.0378
865.5695,191.6389
866.0516,191.8838
866.5338,192.0355
867.0159,191.9549
867.498,191.7841
867.9801,191.5891
868.4622,191.3722
868.9443,191.1239
869.4265,190.7873
869.9086,190.5369
870.3907,190.2968
870.8728,190.2653
871.3549,190.8063
871.837,191.8303
872.3192,192.1346
872.8013,191.666
873.2834,191.1212
873.7655,191.25
874.2476,191.4699
874.7297,191.005
875.2119,189.7558
875.694,189.0497
876.1761,189.6467
876.6582,190.4152
877.1403,190.9944
877.6224,191.3786
878.1046,191.4205
878.5867,191.1047
879.0688,190.8006
879.5509,190.791
880.033,190.8966
880.5151,190.8626
880.9973,190.7197
881.4794,190.5842
881.9615,190.5614
882.4436,190.4976
882.9257,190.3155
883.4078,190.0546
883.89,189.7693
884.3721,189.4136
884.8542,189.308
885.3363,189.6488
885.8184,190.1125
886.3005,190.0161
886.7827,189.5836
887.2648,189.4021
887.7469,189.8634
888.229,190.3427
888.7111,190.5971
889.1932,190.6899
889.6754,190.7305
890.1575,190.7754
890.6396,190.5793
891.1217,190.0181
891.6038,189.4684
892.0859,189.561
892.5681,190.049
893.0502,190.0709
893.5323,189.407
894.0144,188.8956
894.4965,189.1976
894.9786,189.8562
895.4608,190.5611
895.9429,191.3851
896.425,191.7553
896.9071,191.5126
897.3892,191.1254
897.8713,190.8721
898.3535,190.7434
898.8356,190.7149
899.3177,190.7827
899.7998,190.8935
900.2819,191.0869
900.764,191.2486
901.2462,191.2626
901.7283,191.1441
902.2104,191.069
902.6925,190.9571
903.1746,191.0841
903.6567,191.691
904.1389,192.5083
904.621,192.5077
905.1031,191.7989
905.5852,191.3948
906.0673,191.9917
906.5494,192.6689
907.0316,192.4489
907.5137,191.7479
907.9958,191.2978
908.4779,191.5197
908.96,191.6927
909.4421,191.7837
909.9243,191.7647
910.4064,191.5057
910.8885,191.0337
911.3706,190.8353
911.8527,191.0048
912.3348,191.3154
912.817,191.7235
913.2991,192.0593
913.7812,192.048
914.2633,191.4893
914.7454,191.2751
915.2275,191.7907
915.7097,192.3807
916.1918,192.7087
916.6739,192.7759
917.156,192.4956
917.6381,191.8652
918.1202,191.4552
918.6024,191.9465
919.0845,192.6665
919.5666,192.8738
920.0487,192.6206
920.5308,192.364
921.0129,192.2572
921.4951,192.1195
921.9772,191.8315
922.4593,191.5078
922.9414,191.5292
923.4235,191.8884
923.9056,192.3362
924.3878,192.8842
924.8699,193.2977
925.352,193.2788
925.8341,192.9578
926.3162,192.5316
926.7983,191.7133
927.2805,191.3455
927.7626,191.7654
928.2447,192.3966
928.7268,192.6636
929.2089,192.5679
929.691,192.352
930.1732,192.0202
930.6553,191.762
931.1374,191.7559
931.6195,191.9179
932.1016,192.2079
932.5837,192.6242
933.0659,192.932
933.548,193.0137
934.0301,193.0313
934.5122,192.9713
934.9943,192.8818
935.4764,193.2619
935.9586,194.0912
936.4407,194.6078
936.9228,194.1333
937.4049,193.4464
937.887,193.3647
938.3691,193.6993
938.8513,194.0165
939.3334,194.3144
939.8155,194.4036
940.2976,194.0715
940.7797,193.7268
941.2618,194.2735
941.744,195.6014
942.2261,196.0352
942.7082,195.1676
943.1903,194.1145
943.6724,193.9138
944.1545,194.1163
944.6367,194.229
945.1188,194.0763
945.6009,194.2649
946.083,195.0864
946.5651,195.8422
947.0472,196.1253
947.5294,195.9699
948.0115,195.5398
948.4936,194.8701
948.9757,194.4102
949.4578,194.5562
949.9399,194.9261
950.4221,195.2661
950.9042,195.5898
951.3863,195.9904
951.8684,196.7782
952.3505,197.0652
952.8326,196.5225
953.3148,195.6472
953.7969,195.3714
954.279,195.592
954.7611,195.8696
955.2432,196.1042
955.7253,196.338
956.2075,196.7266
956.6896,197.0502
957.1717,197.0368
957.6538,196.4682
958.1359,196.2127
958.618,196.3485
959.1002,196.5855
959.5823,196.6278
960.0644,196.6071
960.5465,197.1108
961.0286,198.0474
961.5107,198.654
961.9929,198.0463
962.475,197.4487
962.9571,197.557
963.4392,198.2227
963.9213,198.8952
964.4034,199.652
964.8856,200.045
965.3677,199.8643
965.8498,199.4822
966.3319,199.4817
966.814,199.7326
967.2961,199.9804
967.7783,200.1963
968.2604,200.3024
968.7425,200.2422
969.2246,200.0775
969.7067,199.8237
970.1888,199.4487
970.671,199.2396
971.1531,199.1998
971.6352,199.2958
972.1173,199.6155
972.5994,199.9835
973.0815,200.1676
973.5637,200.1792
974.0458,200.1492
974.5279,200.1773
975.01,200.0736
975.4921,199.6474
975.9742,199.1504
976.4564,199.398
976.9385,200.3308
977.4206,200.6611
977.9027,199.8532
978.3848,198.9894
978.8669,199.2266
979.3491,199.9497
979.8312,200.409
980.3133,200.3199
980.7954,200.3634
981.2775,200.6513
981.7596,200.9206
982.2418,200.9395
982.7239,200.7679
983.206,200.7396
983.6881,200.8415
984.1702,200.9665
984.6523,200.9885
985.1345,201.0654
985.6166,201.3164
986.0987,201.7038
986.5808,202.0932
987.0629,202.5366
987.545,202.7915
988.0272,202.7669
988.5093,202.6454
988.9914,202.7153
989.4735,202.8952
989.9556,202.9848
990.4377,202.8878
990.9199,202.9417
991.402,203.4404
991.8841,204.0131
992.3662,204.4008
992.8483,204.5905
993.3304,204.9227
993.8126,205.4123
994.2947,205.7808
994.7768,205.6375
995.2589,205.4309
995.741,205.7327
996.2231,206.4191
996.7053,207.1339
997.1874,207.6603
997.6695,208.3629
998.1516,209.3288
998.6337,210.4397
999.1158,211.5022
999.598,212.5544
1000.08,213.9183
1000.562,215.7326
1001.044,217.1834
1001.526,217.5895
1002.009,217.4325
1002.491,217.1151
1002.973,216.6853
1003.455,215.7075
1003.937,213.9552
1004.419,212.3867
1004.901,211.4835
1005.383,210.9968
1005.865,210.3843
1006.348,209.7136
1006.83,209.1601
1007.312,208.917
1007.794,208.6628
1008.276,208.1841
1008.758,207.7086
1009.24,207.4658
1009.722,207.4619
1010.205,207.669
1010.687,208.1078
1011.169,208.5612
1011.651,208.7593
1012.133,208.927
1012.615,209.3445
1013.097,210.0151
1013.579,210.6296
1014.061,211.129
1014.544,211.5693
1015.026,211.8903
1015.508,212.2295
1015.99,213.0313
1016.472,214.1793
1016.954,215.1535
1017.436,215.6619
1017.918,216.3274
1018.401,217.7147
1018.883,219.3416
1019.365,220.6708
1019.847,221.5015
1020.329,222.9518
1020.811,225.0596
1021.293,227.5888
1021.775,230.6133
1022.257,233.8123
1022.74,236.602
1023.222,239.132
1023.704,241.9949
1024.186,245.3579
1024.668,249.1731
1025.15,253.502
1025.632,258.1564
1026.114,262.7223
1026.596,267.2103
1027.079,272.5382
1027.561,278.9228
1028.043,285.4935
1028.525,291.9652
1029.007,298.0296
1029.489,303.3892
1029.971,307.9866
1030.453,311.9832
1030.936,315.5663
1031.418,317.9854
1031.9,319.1087
1032.382,318.7119
1032.864,316.1001
1033.346,311.6274
1033.828,306.1512
1034.31,299.3981
1034.792,292.6006
1035.275,286.0547
1035.757,279.5842
1036.239,272.809
1036.721,265.7829
1037.203,259.357
1037.685,253.6599
1038.167,248.5281
1038.649,244.0001
1039.132,239.9076
1039.614,235.9704
1040.096,232.2984
1040.578,229.3353
1041.06,227.1867
1041.542,225.4035
1042.024,223.9381
1042.506,222.6217
1042.989,221.1312
1043.471,219.5842
1043.953,218.2288
1044.435,217.1079
1044.917,216.0854
1045.399,215.249
1045.881,214.3267
1046.363,213.0995
1046.845,211.6521
1047.328,210.749
1047.81,210.3491
1048.292,209.8904
1048.774,209.0249
1049.256,208.1204
1049.738,207.3684
1050.22,206.8039
1050.702,206.5063
1051.184,206.625
1051.667,206.6544
1052.149,206.6122
1052.631,206.3837
1053.113,205.786
1053.595,204.9563
1054.077,204.0254
1054.559,203.0628
1055.041,202.4428
1055.523,202.6199
1056.006,202.7951
1056.488,202.6814
1056.97,202.4843
1057.452,202.7785
1057.934,203.469
1058.416,203.5905
1058.898,202.8901
1059.38,202.0597
1059.863,201.5352
1060.345,201.2278
1060.827,201.132
1061.309,201.2469
1061.791,201.2309
1062.273,201.0261
1062.755,200.957
1063.237,201.1859
1063.719,201.5967
1064.202,202.3309
1064.684,203.0459
1065.166,203.0505
1065.648,201.4399
1066.13,200.3554
1066.612,200.1681
1067.094,200.2975
1067.576,200.1378
1068.059,199.8452
1068.541,200.6776
1069.023,202.4599
1069.505,203.649
1069.987,202.7923
1070.469,201.661
1070.951,201.1092
1071.433,200.9441
1071.916,200.8024
1072.398,200.671
1072.88,200.7485
1073.362,201.1072
1073.844,201.3753
1074.326,200.8755
1074.808,200.2858
1075.29,200.5222
1075.772,201.6607
1076.255,202.103
1076.737,201.3875
1077.219,200.8719
1077.701,201.1169
1078.183,201.6308
1078.665,201.3598
1079.147,200.6053
1079.629,200.0485
1080.111,199.8504
1080.594,199.9058
1081.076,200.5677
1081.558,201.0865
1082.04,200.9047
1082.522,200.124
1083.004,199.8437
1083.486,200.0235
1083.968,200.3132
1084.45,200.6709
1084.933,200.9125
1085.415,200.7956
1085.897,200.5373
1086.379,200.5077
1086.861,200.8135
1087.343,200.9275
1087.825,200.8041
1088.307,200.6512
1088.79,200.7929
1089.272,200.9149
1089.754,200.3336
1090.236,199.2717
1090.718,199.0869
1091.2,200.8058
1091.682,201.941
1092.164,201.9163
1092.646,201.4236
1093.129,201.682
1093.611,202.2821
1094.093,202.0527
1094.575,200.7466
1095.057,199.7293
1095.539,199.6989
1096.021,200.0471
1096.503,200.6403
1096.986,201.3458
1097.468,201.4367
1097.95,201.0512
1098.432,201.5249
1098.914,203.8224
1099.396,205.6294
1099.878,204.597
1100.36,202.6937
1100.843,201.935
1101.325,202.5095
1101.807,202.6738
1102.289,202.3879
1102.771,202.1329
1103.253,202.1847
1103.735,202.4081
1104.217,202.7468
1104.699,203.1152
1105.182,203.3496
1105.664,203.314
1106.146,203.3045
1106.628,203.2686
1107.11,203.4178
1107.592,204.1535
1108.074,205.1273
1108.556,205.5467
1109.038,205.4981
1109.521,205.6011
1110.003,206.3593
1110.485,206.9398
1110.967,207.1606
1111.449,207.1453
1111.931,207.0085
1112.413,206.7917
1112.895,206.6821
1113.377,206.7017
1113.86,206.808
1114.342,206.9366
1114.824,207.198
1115.306,207.8008
1115.788,208.5483
1116.27,208.7005
1116.752,208.2716
1117.234,207.9672
1117.717,208.0129
1118.199,208.0292
1118.681,207.688
1119.163,207.149
1119.645,206.4648
1120.127,205.6289
1120.609,205.2236
1121.091,205.3226
1121.573,205.3689
1122.056,205.0883
1122.538,204.6977
1123.02,204.3881
1123.502,204.1853
1123.984,204.1519
1124.466,204.4778
1124.948,204.5295
1125.43,204.216
1125.913,203.8551
1126.395,203.673
1126.877,203.5903
1127.359,203.4222
1127.841,203.1987
1128.323,203.0
1128.805,202.9298
1129.287,202.7502
1129.77,202.2236
1130.252,201.8845
1130.734,202.5468
1131.216,203.843
1131.698,204.2158
1132.18,203.7036
1132.662,203.0847
1133.144,202.4281
1133.626,202.1656
1134.109,202.6638
1134.591,203.4422
1135.073,203.802
1135.555,203.7601
1136.037,203.4838
1136.519,202.9834
1137.001,202.5854
1137.483,202.6203
1137.965,202.7467
1138.448,202.7673
1138.93,202.7053
1139.412,202.6152
1139.894,202.4941
1140.376,202.4903
1140.858,202.6689
1141.34,202.8014
1141.822,202.4927
1142.304,202.1726
1142.787,202.3251
1143.269,202.9683
1143.751,203.323
1144.233,203.3396
1144.715,203.2813
1145.197,203.1694
1145.679,203.1682
1146.161,203.7168
1146.644,204.3916
1147.126,204.5707
1147.608,203.9183
1148.09,203.7249
1148.572,204.1753
1149.054,204.558
1149.536,204.478
1150.018,204.1799
1150.5,203.8055
1150.983,203.6054
1151.465,204.148
1151.947,206.3951
1152.429,207.6174
1152.911,207.3161
1153.393,206.6968
1153.875,206.598
1154.357,206.8045
1154.84,206.7036
1155.322,206.3934
1155.804,206.1917
1156.286,206.2148
1156.768,206.3935
1157.25,206.8253
1157.732,207.2262
1158.214,207.2827
1158.697,207.0805
1159.179,206.9821
1159.661,206.9819
1160.143,206.9889
1160.625,206.9349
1161.107,206.9102
1161.589,206.9556
1162.071,207.0255
1162.553,207.1601
1163.036,207.2989
1163.518,206.8824
1164.0,205.9121
1164.482,205.1166
1164.964,205.1615
1165.446,205.2403
1165.928,204.8574
1166.41,204.3259
1166.892,204.3115
1167.375,204.7686
1167.857,205.027
1168.339,205.0005
1168.821,204.7791
1169.303,204.1227
1169.785,203.5815
1170.267,203.6228
1170.749,204.0386
1171.231,204.314
1171.714,204.4481
1172.196,204.2789
1172.678,203.6999
1173.16,203.2927
1173.642,203.706
1174.124,204.372
1174.606,204.9381
1175.088,205.3629
1175.571,205.3372
1176.053,204.8315
1176.535,204.4923
1177.017,204.5144
1177.499,204.7112
1177.981,205.0568
1178.463,205.3791
1178.945,205.4935
1179.427,205.3939
1179.91,205.2007
1180.392,204.8796
1180.874,204.8091
1181.356,205.218
1181.838,205.7252
1182.32,206.0174
1182.802,206.1237
1183.284,206.0452
1183.767,205.7631
1184.249,205.4536
1184.731,205.0757
1185.213,204.9728
1185.695,205.5156
1186.177,206.0914
1186.659,205.9153
1187.141,205.3441
1187.624,204.8845
1188.106,204.6397
1188.588,204.3375
1189.07,203.9428
1189.552,203.7274
1190.034,204.0245
1190.516,204.3979
1190.998,204.0588
1191.48,203.4855
1191.963,203.5802
1192.445,205.0806
1192.927,205.5611
1193.409,204.8218
1193.891,203.9641
1194.373,203.7074
1194.855,203.7879
1195.337,203.9321
1195.819,204.1286
1196.302,204.3699
1196.784,204.8044
1197.266,204.8662
1197.748,204.4411
1198.23,204.0825
1198.712,204.4206
1199.194,204.9577
1199.676,204.976
1200.158,204.6375
1200.641,204.4166
1201.123,204.5502
1201.605,204.3579
1202.087,203.6817
1202.569,203.1877
1203.051,203.8873
1203.533,204.8513
1204.015,204.6027
1204.498,203.5116
1204.98,203.0587
1205.462,203.9059
1205.944,204.2155
1206.426,203.7175
1206.908,203.1247
1207.39,203.1089
1207.872,203.4361
1208.354,204.0882
1208.837,204.8635
1209.319,204.8203
1209.801,203.3694
1210.283,202.4776
1210.765,202.4419
1211.247,202.7215
1211.729,202.7796
1212.211,202.7924
1212.694,203.0466
1213.176,203.4923
1213.658,203.7154
1214.14,203.5468
1214.622,203.6417
1215.104,204.1847
1215.586,204.636
1216.068,204.3246
1216.551,203.6519
1217.033,202.9503
1217.515,202.3066
1217.997,202.1538
1218.479,202.6995
1218.961,202.973
1219.443,202.7262
1219.925,202.5345
1220.407,203.3667
1220.89,204.3847
1221.372,204.492
1221.854,203.7293
1222.336,203.4107
1222.818,203.7379
1223.3,203.831
1223.782,203.4637
1224.264,203.0764
1224.746,203.3336
1225.229,203.6976
1225.711,203.4513
1226.193,202.6516
1226.675,202.5065
1227.157,203.1917
1227.639,203.6001
1228.121,203.4551
1228.603,203.1793
1229.085,203.1372
1229.568,203.2453
1230.05,203.5988
1230.532,204.0934
1231.014,203.7835
1231.496,202.4965
1231.978,201.981
1232.46,202.7446
1232.942,203.8251
1233.425,204.5605
1233.907,204.9899
1234.389,205.0984
1234.871,204.9244
1235.353,204.5194
1235.835,203.8577
1236.317,203.7714
1236.799,204.6013
1237.281,205.275
1237.764,204.5401
1238.246,203.5776
1238.728,203.4535
1239.21,203.9395
1239.692,204.0176
1240.174,203.7033
1240.656,203.4452
1241.138,203.3618
1241.621,203.2826
1242.103,202.878
1242.585,202.6434
1243.067,202.9853
1243.549,203.7312
1244.031,204.3567
1244.513,204.8447
1244.995,204.9542
1245.478,204.5528
1245.96,204.2607
1246.442,204.7323
1246.924,205.1083
1247.406,204.8657
1247.888,204.2327
1248.37,203.8465
1248.852,203.6978
1249.334,203.7716
1249.817,204.0923
1250.299,204.456
1250.781,205.0699
1251.263,205.2977
1251.745,204.7122
1252.227,203.7625
1252.709,203.5998
1253.191,203.9909
1253.673,204.2193
1254.156,204.0957
1254.638,204.1958
1255.12,205.0846
1255.602,205.6189
1256.084,205.2954
1256.566,204.5699
1257.048,204.2532
1257.53,204.2573
1258.012,204.4456
1258.495,204.8112
1258.977,205.1499
1259.459,205.4104
1259.941,205.6985
1260.423,206.0953
1260.905,206.4296
1261.387,206.3047
1261.869,206.002
1262.352,205.9925
1262.834,206.369
1263.316,206.4844
1263.798,206.2457
1264.28,205.9743
1264.762,205.7444
1265.244,205.5907
1265.726,205.5789
1266.208,205.6496
1266.691,205.7204
1267.173,205.7934
1267.655,206.0779
1268.137,206.6451
1268.619,206.7707
1269.101,206.1531
1269.583,205.5357
1270.065,205.7512
1270.548,206.1742
1271.03,206.175
1271.512,205.8746
1271.994,205.9638
1272.476,206.4273
1272.958,206.4741
1273.44,205.8665
1273.922,205.3191
1274.405,205.3836
1274.887,205.6517
1275.369,205.9749
1275.851,206.2561
1276.333,206.0842
1276.815,205.5969
1277.297,205.6125
1277.779,206.3265
1278.261,206.8094
1278.744,206.2217
1279.226,205.7428
1279.708,205.8168
1280.19,206.2102
1280.672,206.5417
1281.154,206.8132
1281.636,207.0744
1282.118,207.332
1282.6,207.3598
1283.083,206.8398
1283.565,206.5645
1284.047,206.8323
1284.529,207.1342
1285.011,206.5396
1285.493,205.6096
1285.975,205.2281
1286.457,205.4532
1286.939,205.7578
1287.422,206.1785
1287.904,206.3127
1288.386,206.0204
1288.868,205.7307
1289.35,206.0229
1289.832,206.4602
1290.314,206.6387
1290.796,206.5416
1291.279,206.263
1291.761,205.759
1292.243,205.566
1292.725,205.7838
1293.207,205.8785
1293.689,205.1406
1294.171,204.4091
1294.653,204.3165
1295.135,204.5893
1295.618,204.7968
1296.1,204.9555
1296.582,205.2864
1297.064,205.8154
1297.546,206.2526
1298.028,206.3156
1298.51,206.3143
1298.992,206.4075
1299.475,206.4584
1299.957,206.1205
1300.439,205.6349
1300.921,205.8299
1301.403,206.6158
1301.885,207.154
