Raman Shift,Intensity 
400,9.212665563
401,9.175710255
402,9.193975875
403,9.189961321
404,9.191973999
405,9.195430802
406,9.201745903
407,9.243141915
408,9.199986256
409,9.18530894
410,9.203081534
411,9.201751261
412,9.206511983
413,9.219748671
414,9.212162691
415,9.209988882
416,9.226456241
417,9.202652532
418,9.185369019
419,9.198004051
420,9.190485772
421,9.180431519
422,9.211332221
423,9.194197559
424,9.233621258
425,9.212218015
426,9.198917088
427,9.214248568
428,9.207082496
429,9.193044063
430,9.22516151
431,9.21000551
432,9.234709227
433,9.224295307
434,9.216301019
435,9.207797859
436,9.172899143
437,9.214241887
438,9.202775107
439,9.201232495
440,9.19520664
441,9.192457407
442,9.21948433
443,9.165470709
444,9.188450684
445,9.180097457
446,9.181177292
447,9.195377311
448,9.191644546
449,9.201301435
450,9.194894919
451,9.233339928
452,9.206655084
453,9.216459764
454,9.185473717
455,9.19080676
456,9.226096436
457,9.171198679
458,9.221491775
459,9.183630313
460,9.204441911
461,9.191493274
462,9.190527705
463,9.211263251
464,9.203275267
465,9.219364642
466,9.209315602
467,9.215548938
468,9.192746939
469,9.206884781
470,9.217499476
471,9.196025221
472,9.208662969
473,9.236672602
474,9.198954268
475,9.182771973
476,9.206472405
477,9.183437805
478,9.208066632
479,9.203504508
480,9.213303061
481,9.165513189
482,9.169942901
483,9.173772136
484,9.186236804
485,9.187385845
486,9.191774652
487,9.238897173
488,9.175655667
489,9.195703731
490,9.204215831
491,9.206977559
492,9.175787479
493,9.201880426
494,9.17089601
495,9.232443967
496,9.206908417
497,9.215836561
498,9.1928809
499,9.219842834
500,9.174787022
501,9.185024928
502,9.226405634
503,9.211534593
504,9.186290666
505,9.217679435
506,9.221181159
507,9.219981279
508,9.218212636
509,9.175333033
510,9.202704172
511,9.232074572
512,9.212518548
513,9.186167862
514,9.225924197
515,9.235789315
516,9.20086347
517,9.203604666
518,9.168752682
519,9.178112459
520,9.21012563
521,9.212486858
522,9.195309173
523,9.217397682
524,9.208518088
525,9.217383142
526,9.216598789
527,9.196894765
528,9.217256728
529,9.202089427
530,9.210895727
531,9.229956073
532,9.182250163
533,9.177440292
534,9.158251144
535,9.195659617
536,9.187999433
537,9.191705733
538,9.237293058
539,9.186489219
540,9.227374619
541,9.174336284
542,9.167843396
543,9.200647668
544,9.205884952
545,9.162543597
546,9.180692311
547,9.181708665
548,9.204180097
549,9.212484463
550,9.218794853
551,9.180095052
552,9.175697426
553,9.171956967
554,9.157717261
555,9.181096753
556,9.203101335
557,9.207515693
558,9.17961031
559,9.189940713
560,9.205897967
561,9.19369662
562,9.174940895
563,9.246798234
564,9.211616738
565,9.200552082
566,9.217875797
567,9.212158248
568,9.222800029
569,9.190492444
570,9.207974818
571,9.190072347
572,9.196066872
573,9.200857213
574,9.173739792
575,9.199058599
576,9.186453016
577,9.218641891
578,9.1815598
579,9.197965664
580,9.203682606
581,9.165878957
582,9.237335147
583,9.235308675
584,9.185232034
585,9.185505709
586,9.19435538
587,9.157621556
588,9.157424672
589,9.202165965
590,9.188645957
591,9.186240497
592,9.191834893
593,9.20128323
594,9.216105832
595,9.185831664
596,9.159922348
597,9.193306524
598,9.174009023
599,9.167744859
600,9.189227273
601,9.165502726
602,9.212326157
603,9.196409633
604,9.199361796
605,9.249226493
606,9.195915574
607,9.190726938
608,9.201470654
609,9.210930464
610,9.197469548
611,9.199508
612,9.222296478
613,9.19545011
614,9.240668963
615,9.230136247
616,9.197477627
617,9.216625311
618,9.203091795
619,9.22281718
620,9.18575371
621,9.225418932
622,9.228650617
623,9.217414818
624,9.234184592
625,9.229360493
626,9.164081315
627,9.183598175
628,9.19098376
629,9.188153534
630,9.212388915
631,9.179198816
632,9.172567806
633,9.208037498
634,9.223882694
635,9.207649268
636,9.212983563
637,9.194703414
638,9.21114185
639,9.205267279
640,9.198921885
641,9.174891254
642,9.210879417
643,9.243740342
644,9.193382023
645,9.241202596
646,9.217460034
647,9.214792888
648,9.172116217
649,9.233397959
650,9.192169729
651,9.178656618
652,9.220826288
653,9.210084792
654,9.234171693
655,9.200843022
656,9.18603951
657,9.196772194
658,9.180964177
659,9.200502173
660,9.189707817
661,9.194904633
662,9.215954653
663,9.193636826
664,9.182638686
665,9.209217591
666,9.194991572
667,9.172305045
668,9.192075006
669,9.206027317
670,9.193174763
671,9.189176842
672,9.199041846
673,9.212979025
674,9.201070843
675,9.218833783
676,9.190736557
677,9.201324937
678,9.230262321
679,9.184404111
680,9.193060967
681,9.192559045
682,9.216603532
683,9.192711688
684,9.199307667
685,9.18837621
686,9.24061766
687,9.186701616
688,9.199364225
689,9.163076051
690,9.182912702
691,9.202987609
692,9.200186184
693,9.212469114
694,9.229246932
695,9.205163862
696,9.248309875
697,9.19296358
698,9.205356465
699,9.212846102
700,9.20577978
701,9.21461175
702,9.196849067
703,9.213538432
704,9.146148249
705,9.18440367
706,9.221712682
707,9.214077302
708,9.179337625
709,9.193071962
710,9.198868803
711,9.182179822
712,9.175820702
713,9.179102971
714,9.198229011
715,9.181504047
716,9.213509797
717,9.191304363
718,9.17992841
719,9.18749205
720,9.219506764
721,9.208023864
722,9.222533855
723,9.212365651
724,9.188077997
725,9.202846513
726,9.185372098
727,9.211479537
728,9.223153058
729,9.185902542
730,9.173636928
731,9.214360595
732,9.207388706
733,9.216214334
734,9.187820936
735,9.234841533
736,9.194430606
737,9.201800555
738,9.202435307
739,9.222917941
740,9.189625784
741,9.207535109
742,9.196114736
743,9.20556853
744,9.207255508
745,9.201371771
746,9.201729365
747,9.222151399
748,9.183730364
749,9.196242275
750,9.16061265
751,9.174078253
752,9.131473266
753,9.176739883
754,9.192018471
755,9.244845015
756,9.186005734
757,9.20651041
758,9.210045307
759,9.208124618
760,9.231956633
761,9.202599571
762,9.21625335
763,9.187911899
764,9.223838799
765,9.204059983
766,9.20537463
767,9.220023545
768,9.172223206
769,9.199657914
770,9.191154361
771,9.204151835
772,9.203385482
773,9.23269473
774,9.237548592
775,9.202587878
776,9.215940452
777,9.192711576
778,9.220806287
779,9.203463468
780,9.20440888
781,9.191184028
782,9.190329011
783,9.214817231
784,9.218126515
785,9.207905862
786,9.182988873
787,9.219396375
788,9.187453913
789,9.185385418
790,9.206479572
791,9.203845677
792,9.177663293
793,9.227207753
794,9.218703787
795,9.179706287
796,9.226089961
797,9.186314451
798,9.220371237
799,9.193174585
800,9.198365582
801,9.198153856
802,9.221922695
803,9.189253242
804,9.206298038
805,9.206826946
806,9.178314248
807,9.186625614
808,9.207875469
809,9.20092892
810,9.217086736
811,9.200799747
812,9.216115324
813,9.192007473
814,9.189981462
815,9.213017889
816,9.180290654
817,9.21437329
818,9.204671854
819,9.232005646
820,9.186242813
821,9.244610462
822,9.170888586
823,9.215062274
824,9.187775715
825,9.207176585
826,9.187226488
827,9.173660937
828,9.235551633
829,9.224105219
830,9.184960448
831,9.203565952
832,9.187091177
833,9.20574193
834,9.231004854
835,9.168721431
836,9.173789502
837,9.222921184
838,9.184538512
839,9.218373805
840,9.176440924
841,9.216393205
842,9.221646604
843,9.189449018
844,9.159850889
845,9.194400205
846,9.169455447
847,9.210779393
848,9.200816301
849,9.165148115
850,9.129983229
851,9.158251651
852,9.200444409
853,9.19203095
854,9.226204528
855,9.175783599
856,9.212033397
857,9.233877803
858,9.157310385
859,9.211372169
860,9.208187236
861,9.210044175
862,9.180697387
863,9.189376901
864,9.195187296
865,9.202338527
866,9.219578812
867,9.208625511
868,9.221166994
869,9.193142708
870,9.162493613
871,9.240523563
872,9.194427574
873,9.192333184
874,9.247539908
875,9.181800862
876,9.16473293
877,9.211170657
878,9.244501317
879,9.229339087
880,9.215485467
881,9.171286762
882,9.183653082
883,9.201772537
884,9.216208857
885,9.204560183
886,9.207144934
887,9.202791387
888,9.176438734
889,9.183961116
890,9.201766994
891,9.188710206
892,9.192771732
893,9.203257888
894,9.174532115
895,9.234200078
896,9.18901102
897,9.209154485
898,9.225294028
899,9.219697009
900,9.202562017
901,9.169760412
902,9.214569183
903,9.178622064
904,9.190463267
905,9.202698132
906,9.240729415
907,9.180565814
908,9.180937941
909,9.193811921
910,9.188123145
911,9.168724107
912,9.207649434
913,9.218929461
914,9.198193869
915,9.227052237
916,9.227026222
917,9.193604539
918,9.186079614
919,9.179211367
920,9.159969943
921,9.211671326
922,9.22594083
923,9.205407209
924,9.220166304
925,9.207715039
926,9.228734529
927,9.20975375
928,9.206317329
929,9.158658273
930,9.201250722
931,9.208889056
932,9.210757506
933,9.181634665
934,9.197717015
935,9.192948566
936,9.190029579
937,9.177121707
938,9.229338648
939,9.186934087
940,9.231488971
941,9.224107192
942,9.203857068
943,9.207562637
944,9.202528361
945,9.189552543
946,9.218489299
947,9.203199808
948,9.213391856
949,9.197731414
950,9.201728877
951,9.201226577
952,9.204239001
953,9.196128916
954,9.187041922
955,9.199955476
956,9.231997897
957,9.187001695
958,9.227588255
959,9.193082016
960,9.179663962
961,9.203339145
962,9.226306038
963,9.209783443
964,9.186666754
965,9.164648259
966,9.183219978
967,9.186353306
968,9.21256968
969,9.232099278
970,9.199597922
971,9.23041811
972,9.202887098
973,9.255174192
974,9.199770974
975,9.17988256
976,9.241992932
977,9.220203043
978,9.188633928
979,9.186915754
980,9.204892071
981,9.186922022
982,9.237255287
983,9.201631939
984,9.208106802
985,9.171916573
986,9.217232571
987,9.204394354
988,9.199900208
989,9.203001956
990,9.191061174
991,9.212471247
992,9.216688096
993,9.185361567
994,9.177598325
995,9.238622325
996,9.215001314
997,9.217232922
998,9.206204441
999,9.183160791
1000,9.177549369
1001,9.230100872
1002,9.185156395
1003,9.186899937
1004,9.190686038
1005,9.195536575
1006,9.176781105
1007,9.204570203
1008,9.183325947
1009,9.201037554
1010,9.147752022
1011,9.210392121
1012,9.209893778
1013,9.206020571
1014,9.183268706
1015,9.197426703
1016,9.195467264
1017,9.204192463
1018,9.244204823
1019,9.223339805
1020,9.205726341
1021,9.251660515
1022,9.21930782
1023,9.238579012
1024,9.208362062
1025,9.230792973
1026,9.228686666
1027,9.263633599
1028,9.260136964
1029,9.246339963
1030,9.262563959
1031,9.327709814
1032,9.299617683
1033,9.331402468
1034,9.315730887
1035,9.360021972
1036,9.325817215
1037,9.348992524
1038,9.416799703
1039,9.440365265
1040,9.474713634
1041,9.456778159
1042,9.475550719
1043,9.461184469
1044,9.53283687
1045,9.59769092
1046,9.631819669
1047,9.612258544
1048,9.630500763
1049,9.663493402
1050,9.664629912
1051,9.718643501
1052,9.701544155
1053,9.743914861
1054,9.767108592
1055,9.764620514
1056,9.77863868
1057,9.776102098
1058,9.778551209
1059,9.773964201
1060,9.800359389
1061,9.788474532
1062,9.778403668
1063,9.778693061
1064,9.739166603
1065,9.752551257
1066,9.780728414
1067,9.745008588
1068,9.696068844
1069,9.663977552
1070,9.703646124
1071,9.654081039
1072,9.631561503
1073,9.622855662
1074,9.57391422
1075,9.552984486
1076,9.544401222
1077,9.505790567
1078,9.50228
1079,9.446238254
1080,9.413125216
1081,9.459669227
1082,9.372331024
1083,9.407898912
1084,9.403883082
1085,9.358311408
1086,9.319949637
1087,9.317938637
1088,9.284368274
1089,9.289614193
1090,9.32911579
1091,9.261418483
1092,9.255614052
1093,9.228920211
1094,9.258470532
1095,9.236679002
1096,9.244449406
1097,9.24506208
1098,9.257391131
1099,9.216182971
1100,9.20758538
1101,9.191393244
1102,9.220816953
1103,9.216338709
1104,9.196600907
1105,9.188930438
1106,9.207022169
1107,9.224057532
1108,9.195961649
1109,9.186747452
1110,9.192158213
1111,9.21774847
1112,9.204869468
1113,9.208677046
1114,9.210788727
1115,9.191604976
1116,9.206342109
1117,9.201830449
1118,9.2047743
1119,9.180917697
1120,9.215832183
1121,9.164009917
1122,9.194999117
1123,9.189265742
1124,9.149066966
1125,9.221295533
1126,9.182948559
1127,9.19025947
1128,9.208512937
1129,9.192394436
1130,9.191394911
1131,9.21911276
1132,9.190745154
1133,9.2199689
1134,9.194867175
1135,9.176157487
1136,9.214261988
1137,9.195604644
1138,9.182844928
1139,9.191407988
1140,9.191500136
1141,9.190254266
1142,9.211045395
1143,9.195584215
1144,9.220751694
1145,9.192726383
1146,9.18728633
1147,9.217414039
1148,9.197176439
1149,9.188982663
1150,9.195054153
1151,9.205037861
1152,9.216237986
1153,9.179643288
1154,9.195551997
1155,9.225001914
1156,9.241450189
1157,9.207883742
1158,9.232817582
1159,9.21453962
1160,9.197230333
1161,9.176451304
1162,9.208659884
1163,9.222992173
1164,9.204570316
1165,9.205702815
1166,9.188302392
1167,9.190525742
1168,9.22488537
1169,9.211916052
1170,9.168975553
1171,9.187120811
1172,9.213124768
1173,9.194449169
1174,9.188089408
1175,9.207980638
1176,9.220591453
1177,9.205169958
1178,9.169173059
1179,9.188766285
1180,9.239429009
1181,9.1850189
1182,9.234664918
1183,9.245574641
1184,9.191169926
1185,9.185609988
1186,9.201160643
1187,9.164986291
1188,9.230382854
1189,9.219589483
1190,9.184268135
1191,9.204780327
1192,9.197462781
1193,9.17083977
1194,9.226621296
1195,9.196037879
1196,9.22599067
1197,9.217915215
1198,9.219269157
1199,9.176244124
1200,9.201177
1201,9.242924689
1202,9.204672355
1203,9.199358979
1204,9.188668722
1205,9.20601172
1206,9.187289352
1207,9.206266838
1208,9.219122318
1209,9.201502731
1210,9.209367501
1211,9.207837584
1212,9.177767262
1213,9.22302006
1214,9.201716833
1215,9.214702707
1216,9.21827382
1217,9.193504838
1218,9.217435457
1219,9.219174195
1220,9.218277129
1221,9.194738764
1222,9.190777323
1223,9.184110576
1224,9.183781356
1225,9.180824569
1226,9.207285537
1227,9.198420034
1228,9.2175365
1229,9.178303093
1230,9.223132904
1231,9.204947409
1232,9.179699339
1233,9.15173761
1234,9.19386546
1235,9.211196451
1236,9.187577792
1237,9.184495928
1238,9.188532507
1239,9.194449935
1240,9.169571166
1241,9.193899
1242,9.182431229
1243,9.192718294
1244,9.152748909
1245,9.173243912
1246,9.216018404
1247,9.179962532
1248,9.19786749
1249,9.229474958
1250,9.228598937
1251,9.199703404
1252,9.195368317
1253,9.177571185
1254,9.197719639
1255,9.184501803
1256,9.184928965
1257,9.20922622
1258,9.193250503
1259,9.207863423
1260,9.19873988
1261,9.186195619
1262,9.221004384
1263,9.193408931
1264,9.204151671
1265,9.192195678
1266,9.182746775
1267,9.213250904
1268,9.210104369
1269,9.19262441
1270,9.204959352
1271,9.201996453
1272,9.171255018
1273,9.190621599
1274,9.185607162
1275,9.228158806
1276,9.171084262
1277,9.182239299
1278,9.181951962
1279,9.209972386
1280,9.188335317
1281,9.183984995
1282,9.208189214
1283,9.211396038
1284,9.209476255
1285,9.198021606
1286,9.218082825
1287,9.167203383
1288,9.179297195
1289,9.187616954
1290,9.190041387
1291,9.217386075
1292,9.211715504
1293,9.176922199
1294,9.229229898
1295,9.205592794
1296,9.223467556
1297,9.207059763
1298,9.205737399
1299,9.243339867
1300,9.21991006
1301,9.192957061
1302,9.204329039
1303,9.174994127
1304,9.186021707
1305,9.222486271
1306,9.19155601
1307,9.196700644
1308,9.179116537
1309,9.224174862
1310,9.209619145
1311,9.237435286
1312,9.212727712
1313,9.206237146
1314,9.189999907
1315,9.185159265
1316,9.210609513
1317,9.199627931
1318,9.212376061
1319,9.190971032
1320,9.2266668
1321,9.173767856
1322,9.222296946
1323,9.212440877
1324,9.246689336
1325,9.211920447
1326,9.20677661
1327,9.208285575
1328,9.202789085
1329,9.216684944
1330,9.228631248
1331,9.183839951
1332,9.18315727
1333,9.183603448
1334,9.197419368
1335,9.203883427
1336,9.253488307
1337,9.225835429
1338,9.240276276
1339,9.182488919
1340,9.20449368
1341,9.224969585
1342,9.231874012
1343,9.167666142
1344,9.18659529
1345,9.221285694
1346,9.163966537
1347,9.219281785
1348,9.195572279
1349,9.198682374
1350,9.228108311
1351,9.185115544
1352,9.205201769
1353,9.195097126
1354,9.214836822
1355,9.204015509
1356,9.241566414
1357,9.219811137
1358,9.202685445
1359,9.202488906
1360,9.150131705
1361,9.200463596
1362,9.195611764
1363,9.200518368
1364,9.195545502
1365,9.189977142
1366,9.157071726
1367,9.209946523
1368,9.188692277
1369,9.19521971
1370,9.203597627
1371,9.224522312
1372,9.202312793
1373,9.232502611
1374,9.198167433
1375,9.202123867
1376,9.162342611
1377,9.185179324
1378,9.18692702
1379,9.213997355
1380,9.168427188
1381,9.212258521
1382,9.194105458
1383,9.196468888
1384,9.228199628
1385,9.186703644
1386,9.214042117
1387,9.198152899
1388,9.193391716
1389,9.224363991
1390,9.212573321
1391,9.182275937
1392,9.195543953
1393,9.218960492
1394,9.188514059
1395,9.243748963
1396,9.230440794
1397,9.259504395
1398,9.237534495
1399,9.236043857
1400,9.225442587
1401,9.243759625
1402,9.245601931
1403,9.225544353
1404,9.256744513
1405,9.30554015
1406,9.261282653
1407,9.313177253
1408,9.253481842
1409,9.301476644
1410,9.325525305
1411,9.327971236
1412,9.316198466
1413,9.323954968
1414,9.32930449
1415,9.365003996
1416,9.348792548
1417,9.382468663
1418,9.366415323
1419,9.408815199
1420,9.366113178
1421,9.397417168
1422,9.399768196
1423,9.363326552
1424,9.382053424
1425,9.387246121
1426,9.386857222
1427,9.390885368
1428,9.383203677
1429,9.393568757
1430,9.398607094
1431,9.37073157
1432,9.393086032
1433,9.408051285
1434,9.379455266
1435,9.355480515
1436,9.370291664
1437,9.340883208
1438,9.339756917
1439,9.347006654
1440,9.337904895
1441,9.291704163
1442,9.322810718
1443,9.316524728
1444,9.31430306
1445,9.317179496
1446,9.239838382
1447,9.230746273
1448,9.259366999
1449,9.238353322
1450,9.263565462
1451,9.253951144
1452,9.254358684
1453,9.245885002
1454,9.280963551
1455,9.192491065
1456,9.223512927
1457,9.233023464
1458,9.21484372
1459,9.210524751
1460,9.186987744
1461,9.224594335
1462,9.201650281
1463,9.227995528
1464,9.208149482
1465,9.22809935
1466,9.215700629
1467,9.22701156
1468,9.213609935
1469,9.16648782
1470,9.172017308
1471,9.176452963
1472,9.21773942
1473,9.218123652
1474,9.226907147
1475,9.168330097
1476,9.191535971
1477,9.206809887
1478,9.205975456
1479,9.159878735
1480,9.210723983
1481,9.21194029
1482,9.220273536
1483,9.221262809
1484,9.2221525
1485,9.179438318
1486,9.200926157
1487,9.23811755
1488,9.200115645
1489,9.20503975
1490,9.197864143
1491,9.172760501
1492,9.180121693
1493,9.207977526
1494,9.214303049
1495,9.18371771
1496,9.214107075
1497,9.188968001
1498,9.220905398
1499,9.167881032
1500,9.200347525
1501,9.163118684
1502,9.191398836
1503,9.196665542
1504,9.191831593
1505,9.193202051
1506,9.185435195
1507,9.22677627
1508,9.218055791
1509,9.160006482
1510,9.19748942
1511,9.169730549
1512,9.212165339
1513,9.199911118
1514,9.229922143
1515,9.191196185
1516,9.190962363
1517,9.212543869
1518,9.219558505
1519,9.238168816
1520,9.223427378
1521,9.227441404
1522,9.224288231
1523,9.202647167
1524,9.214514235
1525,9.241670929
1526,9.239915411
1527,9.225804103
1528,9.247356275
1529,9.294709002
1530,9.248071806
1531,9.276268464
1532,9.300125173
1533,9.315840418
1534,9.27570331
1535,9.289815409
1536,9.353084827
1537,9.324599369
1538,9.349983173
1539,9.351116463
1540,9.336713637
1541,9.347356033
1542,9.433043368
1543,9.406785645
1544,9.416464942
1545,9.441745948
1546,9.418277344
1547,9.488062981
1548,9.482751255
1549,9.496773913
1550,9.452225877
1551,9.471835184
1552,9.457069619
1553,9.498623771
1554,9.511113455
1555,9.54029725
1556,9.484082058
1557,9.510978924
1558,9.517842564
1559,9.486589762
1560,9.4904713
1561,9.498157026
1562,9.440811583
1563,9.497030554
1564,9.475229146
1565,9.462720902
1566,9.430169764
1567,9.426257232
1568,9.448786959
1569,9.407934227
1570,9.412133453
1571,9.392210262
1572,9.350544794
1573,9.409407574
1574,9.355020974
1575,9.353694994
1576,9.31266085
1577,9.332895897
1578,9.317345974
1579,9.242850189
1580,9.258648273
1581,9.263018651
1582,9.323759963
1583,9.280839922
1584,9.251224113
1585,9.2311614
1586,9.261263429
1587,9.219969348
1588,9.219297369
1589,9.224608502
1590,9.221161434
1591,9.233269171
1592,9.220954115
1593,9.251676312
1594,9.252867073
1595,9.206247378
1596,9.221515881
1597,9.207447259
1598,9.211636541
1599,9.231680897
1600,9.190449382
1601,9.196684622
1602,9.213623299
1603,9.197543151
1604,9.212388567
1605,9.229515577
1606,9.196090763
1607,9.180760755
1608,9.223397231
1609,9.181416719
1610,9.202017584
1611,9.172753766
1612,9.212985017
1613,9.188687239
1614,9.189832048
1615,9.202949831
1616,9.238830691
1617,9.220577172
1618,9.184472885
1619,9.156489493
1620,9.197867938
1621,9.217747693
1622,9.211495021
1623,9.215159856
1624,9.171960804
1625,9.213796351
1626,9.211849726
1627,9.224896461
1628,9.229625653
1629,9.220882748
1630,9.1947781
1631,9.218328308
1632,9.23272703
1633,9.207730136
1634,9.176777783
1635,9.219577589
1636,9.219831911
1637,9.209248182
1638,9.197460422
1639,9.210623909
1640,9.210542424
1641,9.209608093
1642,9.176743584
1643,9.206819625
1644,9.158824684
1645,9.206283704
1646,9.194344894
1647,9.22057481
1648,9.190821165
1649,9.226403347
1650,9.221617429
1651,9.235140123
1652,9.193738878
1653,9.22094117
1654,9.206031794
1655,9.190623758
1656,9.222948034
1657,9.161103084
1658,9.195694084
1659,9.209011095
1660,9.219949293
1661,9.194770169
1662,9.232705907
1663,9.216016318
1664,9.19195678
1665,9.201753103
1666,9.222064784
1667,9.222601477
1668,9.221565056
1669,9.221673316
1670,9.200811573
1671,9.160182999
1672,9.226272877
1673,9.185469115
1674,9.23187222
1675,9.176553025
1676,9.180771124
1677,9.194581064
1678,9.211147231
1679,9.167210266
1680,9.215042981
1681,9.202016576
1682,9.193357477
1683,9.222947272
1684,9.216005733
1685,9.187337906
1686,9.208870585
1687,9.207037153
1688,9.231506866
1689,9.246646488
1690,9.25539985
1691,9.272541494
1692,9.25178529
1693,9.251095378
1694,9.262678087
1695,9.280522785
1696,9.276041348
1697,9.260750479
1698,9.235171368
1699,9.278722536
1700,9.294513098
1701,9.305745286
1702,9.315864829
1703,9.30589227
1704,9.278345815
1705,9.349444903
1706,9.336196224
1707,9.312065324
1708,9.332103889
1709,9.321047177
1710,9.337927118
1711,9.342727102
1712,9.358936374
1713,9.358037877
1714,9.347705051
1715,9.371185238
1716,9.353568209
1717,9.346574333
1718,9.357069744
1719,9.330298096
1720,9.33198744
1721,9.314965416
1722,9.303184487
1723,9.302409546
1724,9.327949659
1725,9.305136741
1726,9.341524851
1727,9.317142482
1728,9.290915378
1729,9.274493354
1730,9.296510758
1731,9.292581464
1732,9.246989216
1733,9.276785057
1734,9.28355634
1735,9.267541538
1736,9.231001144
1737,9.258049342
1738,9.25163142
1739,9.241509957
1740,9.260859992
1741,9.219298575
1742,9.252930262
1743,9.222241783
1744,9.226634953
1745,9.219219011
1746,9.20250455
1747,9.199706906
1748,9.204162737
1749,9.201816658
1750,9.222680602
1751,9.19623532
1752,9.214406957
1753,9.203242273
1754,9.189472253
1755,9.221010471
1756,9.175880262
1757,9.209328382
1758,9.210847583
1759,9.2217767
1760,9.1987279
1761,9.194645976
1762,9.180143848
1763,9.207832076
1764,9.175348986
1765,9.173957789
1766,9.18218554
1767,9.192303877
1768,9.222822779
1769,9.184768856
1770,9.236229089
1771,9.14955693
1772,9.21411532
1773,9.192268377
1774,9.218308266
1775,9.233701115
1776,9.216041236
1777,9.227925513
1778,9.169385505
1779,9.212025989
1780,9.186019241
1781,9.163286707
1782,9.20450276
1783,9.204340364
1784,9.224766669
1785,9.224939168
1786,9.19524183
1787,9.1637226
1788,9.22436327
1789,9.19130081
1790,9.1931814
1791,9.189584683
1792,9.228419162
1793,9.178847954
1794,9.188452819
1795,9.204602187
1796,9.181961396
1797,9.242285123
1798,9.165855396
1799,9.167449361
1800,9.181543923
1801,9.192412859
1802,9.189710635
1803,9.185094112
1804,9.219969126
1805,9.172386061
1806,9.184198365
1807,9.229052774
1808,9.164586571
1809,9.168853815
1810,9.19640819
1811,9.216189698
1812,9.192241871
1813,9.203347626
1814,9.204705631
1815,9.192274478
1816,9.192140189
1817,9.186908134
1818,9.170517448
1819,9.17951253
1820,9.184753352
1821,9.197028945
1822,9.227360817
1823,9.237967468
1824,9.224304906
1825,9.209619615
1826,9.220793196
1827,9.176234624
1828,9.210528979
1829,9.197909459
1830,9.228824302
1831,9.163776698
1832,9.226919536
1833,9.202999119
1834,9.195624044
1835,9.210020758
1836,9.209480573
1837,9.208146979
1838,9.1844606
1839,9.245016248
1840,9.181741669
1841,9.216036219
1842,9.245483775
1843,9.193888229
1844,9.182961876
1845,9.212794343
1846,9.229690229
1847,9.209283316
1848,9.200095933
1849,9.213443398
1850,9.189204935
1851,9.208460938
1852,9.190693333
1853,9.210266265
1854,9.217527657
1855,9.194816085
1856,9.204979428
1857,9.186604315
1858,9.189033319
1859,9.195447651
1860,9.197072056
1861,9.242188428
1862,9.185089371
1863,9.207934987
1864,9.184769093
1865,9.226505522
1866,9.21523185
1867,9.192755446
1868,9.208266851
1869,9.194692854
1870,9.179906742
1871,9.19767805
1872,9.190981943
1873,9.179057767
1874,9.169726055
1875,9.193337789
1876,9.213034251
1877,9.219084224
1878,9.223723634
1879,9.169969676
1880,9.18209735
1881,9.176894988
1882,9.187384625
1883,9.211404567
1884,9.215823238
1885,9.17837178
1886,9.195052326
1887,9.20262059
1888,9.196789655
1889,9.208153273
1890,9.171407176
1891,9.188264677
1892,9.22014036
1893,9.201032195
1894,9.174480991
1895,9.202010435
1896,9.219581931
1897,9.1622153
1898,9.21153941
1899,9.201750698
1900,9.198264022
1901,9.209370938
1902,9.21802948
1903,9.232233992
1904,9.192069122
1905,9.219925857
1906,9.185165297
1907,9.187457402
1908,9.206663295
1909,9.21164941
1910,9.191334211
1911,9.233041769
1912,9.193511009
1913,9.240342526
1914,9.227221008
1915,9.211637991
1916,9.209544719
1917,9.181640632
1918,9.230942565
1919,9.218657633
1920,9.213639429
1921,9.21278558
1922,9.191975105
1923,9.200168083
1924,9.202294514
1925,9.196516781
1926,9.232598788
1927,9.190904599
1928,9.189241689
1929,9.177318363
1930,9.230595977
1931,9.234807064
1932,9.193136145
1933,9.187152869
1934,9.168390947
1935,9.153959529
1936,9.198957358
1937,9.204955843
1938,9.188026026
1939,9.191641563
1940,9.197582555
1941,9.1993136
1942,9.21096595
1943,9.178046324
1944,9.204723738
1945,9.173827385
1946,9.181464089
1947,9.16035434
1948,9.171777863
1949,9.198020261
1950,9.227964381
1951,9.240355859
1952,9.192092934
1953,9.210780723
1954,9.168730333
1955,9.203841768
1956,9.187125269
1957,9.213465497
1958,9.197299945
1959,9.24173292
1960,9.202052347
1961,9.199882989
1962,9.203217025
1963,9.191450261
1964,9.199785268
1965,9.203436305
1966,9.198034775
1967,9.217493479
1968,9.233157632
1969,9.197081237
1970,9.173044889
1971,9.174208923
1972,9.192387977
1973,9.22680933
1974,9.210205311
1975,9.201606882
1976,9.173926289
1977,9.214641434
1978,9.20782708
1979,9.170463624
1980,9.19728037
1981,9.209680359
1982,9.174434384
1983,9.132222973
1984,9.195665303
1985,9.216074978
1986,9.189712056
1987,9.182878226
1988,9.203268109
1989,9.165515442
1990,9.177929741
1991,9.219359642
1992,9.173406308
1993,9.213595716
1994,9.216287475
1995,9.193490665
1996,9.225642695
1997,9.191545135
1998,9.262793718
1999,9.153683576
2000,9.221809759
2001,9.18329419
2002,9.194415557
2003,9.165860446
2004,9.20420334
2005,9.221538991
2006,9.181162388
2007,9.177929045
2008,9.211463087
2009,9.171582817
2010,9.156699429
2011,9.209365608
2012,9.208343498
2013,9.204927436
2014,9.227616182
2015,9.198174737
2016,9.172701114
2017,9.182032208
2018,9.18270884
2019,9.212824075
2020,9.230058173
2021,9.179005195
2022,9.190866533
2023,9.167365406
2024,9.164965884
2025,9.195571926
2026,9.193715413
2027,9.204672508
2028,9.184824435
2029,9.184187022
2030,9.212547717
2031,9.211267475
2032,9.244590674
2033,9.168718684
2034,9.204994678
2035,9.189687623
2036,9.188960129
2037,9.195638266
2038,9.211261358
2039,9.211716823
2040,9.203492977
2041,9.214823593
2042,9.18553102
2043,9.169562417
2044,9.158613944
2045,9.203916557
2046,9.177371326
2047,9.204075114
2048,9.235897195
2049,9.227615788
2050,9.178965913
2051,9.206038024
2052,9.236024863
2053,9.180848047
2054,9.23424907
2055,9.179741378
2056,9.179122739
2057,9.155514995
2058,9.230529835
2059,9.217898483
2060,9.208703157
2061,9.197457488
2062,9.190417172
2063,9.20544469
2064,9.165220941
2065,9.176341047
2066,9.180717175
2067,9.199954996
2068,9.206291315
2069,9.18673242
2070,9.218953167
2071,9.218739158
2072,9.204901891
2073,9.17369956
2074,9.16616127
2075,9.177652412
2076,9.19039882
2077,9.244341497
2078,9.214676321
2079,9.202892087
2080,9.190700013
2081,9.17949821
2082,9.213091228
2083,9.206895772
2084,9.202373828
2085,9.177639829
2086,9.234163366
2087,9.204651334
2088,9.210024976
2089,9.202363103
2090,9.178690543
2091,9.167282866
2092,9.177985827
2093,9.159873231
2094,9.169730138
2095,9.2059088
2096,9.205810766
2097,9.197132865
2098,9.212921393
2099,9.233599814
2100,9.219285726
2101,9.186180871
2102,9.204123902
2103,9.227472244
2104,9.173688112
2105,9.216517635
2106,9.212685018
2107,9.156803556
2108,9.206479351
2109,9.170901781
2110,9.259677483
2111,9.191577366
2112,9.163720387
2113,9.208165507
2114,9.183937648
2115,9.195461057
2116,9.226567758
2117,9.219916842
2118,9.18642291
2119,9.184932475
2120,9.18155641
2121,9.206685007
2122,9.206279836
2123,9.191919883
2124,9.201377681
2125,9.230039514
2126,9.201973461
2127,9.230434427
2128,9.197464074
2129,9.169728173
2130,9.198577957
2131,9.189601781
2132,9.207309542
2133,9.168360088
2134,9.174234398
2135,9.194226026
2136,9.18701174
2137,9.170719697
2138,9.19721051
2139,9.189916817
2140,9.179705511
2141,9.230639971
2142,9.221351869
2143,9.223931525
2144,9.217242916
2145,9.210382503
2146,9.236389238
2147,9.208247201
2148,9.185042178
2149,9.183880787
2150,9.214576221
2151,9.1967694
2152,9.199117329
2153,9.240149813
2154,9.189842152
2155,9.227738992
2156,9.220862033
2157,9.210213415
2158,9.213150626
2159,9.208436664
2160,9.209985263
2161,9.189141547
2162,9.224229502
2163,9.223736906
2164,9.195385684
2165,9.219474171
2166,9.19524589
2167,9.164070689
2168,9.172856662
2169,9.185621933
2170,9.176387957
2171,9.202374781
2172,9.185486628
2173,9.165679219
2174,9.212835445
2175,9.211920699
2176,9.179633479
2177,9.176058684
2178,9.191395203
2179,9.192759829
2180,9.17557262
2181,9.204940296
2182,9.188806248
2183,9.188489919
2184,9.233001639
2185,9.157973056
2186,9.195623655
2187,9.184113603
2188,9.192988215
2189,9.20474483
2190,9.199703545
2191,9.211392996
2192,9.207070326
2193,9.226022829
2194,9.211212846
2195,9.200285735
2196,9.218746049
2197,9.193559536
2198,9.211926265
2199,9.204308425
2200,9.205005616
2201,9.187782067
2202,9.22739023
2203,9.198596882
2204,9.216958927
2205,9.170321935
2206,9.171418909
2207,9.17010969
2208,9.19896308
2209,9.17560666
2210,9.203493468
2211,9.173095264
2212,9.233946474
2213,9.212225795
2214,9.207682869
2215,9.190232347
2216,9.183371383
2217,9.221000171
2218,9.222742153
2219,9.182046857
2220,9.199303451
2221,9.215067022
2222,9.215791343
2223,9.198596368
2224,9.227730498
2225,9.234258549
2226,9.224690661
2227,9.177094709
2228,9.22680302
2229,9.220142336
2230,9.196288943
2231,9.226504646
2232,9.200963723
2233,9.207859384
2234,9.213411122
2235,9.18991049
2236,9.195324238
2237,9.174201913
2238,9.215034748
2239,9.179268067
2240,9.170532335
2241,9.211839689
2242,9.193083736
2243,9.216195751
2244,9.20219704
2245,9.199670757
2246,9.209179446
2247,9.225226092
2248,9.208937812
2249,9.205213836
2250,9.18101368
2251,9.217974661
2252,9.205018893
2253,9.192672657
2254,9.224261421
2255,9.224389899
2256,9.187268249
2257,9.244561445
2258,9.186709827
2259,9.183883405
2260,9.177579801
2261,9.222530315
2262,9.239837645
2263,9.214904347
2264,9.203106564
2265,9.187521446
2266,9.214104583
2267,9.202660363
2268,9.221665693
2269,9.168474297
2270,9.199877331
2271,9.200486943
2272,9.172470753
2273,9.21568541
2274,9.196775616
2275,9.198844744
2276,9.210039779
2277,9.194649659
2278,9.215394086
2279,9.223632778
2280,9.193899188
2281,9.183203674
2282,9.208380613
2283,9.186455164
2284,9.200383303
2285,9.203868318
2286,9.189493571
2287,9.164710815
2288,9.187877651
2289,9.210516142
2290,9.200943146
2291,9.16379104
2292,9.199254378
2293,9.204089805
2294,9.181679296
2295,9.200973308
2296,9.210427047
2297,9.225572059
2298,9.206910579
2299,9.230902373
2300,9.189261956
2301,9.217585065
2302,9.187681649
2303,9.214946497
2304,9.171992443
2305,9.223876401
2306,9.214988547
2307,9.158448284
2308,9.177045478
2309,9.178841942
2310,9.212129504
2311,9.174714045
2312,9.203220351
2313,9.194999902
2314,9.178258425
2315,9.211410689
2316,9.230538813
2317,9.198016106
2318,9.208850935
2319,9.228422762
2320,9.218050204
2321,9.215391096
2322,9.190241339
2323,9.228857171
2324,9.188109657
2325,9.212453801
2326,9.201809459
2327,9.191337924
2328,9.199064761
2329,9.220252216
2330,9.163216324
2331,9.167944479
2332,9.225828572
2333,9.171385522
2334,9.214501397
2335,9.188218251
2336,9.168072678
2337,9.15658528
2338,9.21075041
2339,9.188943862
2340,9.222325371
2341,9.218302392
2342,9.23168798
2343,9.187482837
2344,9.187034831
2345,9.221931686
2346,9.245974443
2347,9.20739934
2348,9.184245371
2349,9.179570945
2350,9.205638573
2351,9.192811595
2352,9.239233481
2353,9.17158754
2354,9.192766073
2355,9.185483853
2356,9.207890861
2357,9.20024118
2358,9.196960728
2359,9.229076808
2360,9.178629302
2361,9.203724275
2362,9.202355609
2363,9.169020665
2364,9.193570679
2365,9.20624926
2366,9.166057717
2367,9.177527404
2368,9.181289897
2369,9.235162648
2370,9.190934154
2371,9.219304466
2372,9.195466376
2373,9.203967037
2374,9.192157404
2375,9.190788887
2376,9.229598921
2377,9.195786715
2378,9.217433941
2379,9.201463506
2380,9.226724945
2381,9.206750678
2382,9.18404272
2383,9.186717977
2384,9.192262154
2385,9.19792143
2386,9.1969571
2387,9.191265429
2388,9.175676916
2389,9.1971038
2390,9.20972765
2391,9.169873212
2392,9.233789578
2393,9.20291775
2394,9.224440833
2395,9.219583585
2396,9.193658375
2397,9.202773381
2398,9.219471022
2399,9.199227779
2400,9.193182953
2401,9.226619659
2402,9.194090882
2403,9.209058736
2404,9.218951134
2405,9.173013351
2406,9.174895696
2407,9.213649158
2408,9.188646721
2409,9.231077762
2410,9.164914621
2411,9.235770933
2412,9.188761235
2413,9.167953481
2414,9.204286713
2415,9.229302926
2416,9.211252674
2417,9.236700697
2418,9.181513145
2419,9.203227713
2420,9.167545196
2421,9.212335282
2422,9.220795386
2423,9.188332997
2424,9.192308147
2425,9.175215887
2426,9.192818456
2427,9.185855674
2428,9.184899071
2429,9.204145487
2430,9.199319285
2431,9.211339314
2432,9.208662756
2433,9.205735499
2434,9.221718808
2435,9.202278002
2436,9.180581011
2437,9.195537854
2438,9.162240021
2439,9.224462146
2440,9.154269087
2441,9.207788103
2442,9.161595762
2443,9.192462486
2444,9.231197873
2445,9.174516999
2446,9.207736904
2447,9.179662108
2448,9.215557312
2449,9.179387382
2450,9.223633892
2451,9.212663211
2452,9.201191808
2453,9.192623369
2454,9.196163839
2455,9.18420615
2456,9.193488389
2457,9.197969187
2458,9.174729957
2459,9.218520953
2460,9.179181917
2461,9.195257403
2462,9.204781658
2463,9.205386978
2464,9.156627767
2465,9.219027899
2466,9.199276478
2467,9.213599068
2468,9.231570077
2469,9.209351934
2470,9.178268428
2471,9.188055021
2472,9.193726831
2473,9.211069088
2474,9.221450329
2475,9.217261043
2476,9.181116529
2477,9.181929627
2478,9.203335353
2479,9.191974385
2480,9.206303744
2481,9.184050338
2482,9.241666444
2483,9.197130162
2484,9.196779803
2485,9.213200672
2486,9.171709491
2487,9.219378207
2488,9.198123396
2489,9.171119791
2490,9.218138878
2491,9.187001963
2492,9.188369402
2493,9.201161259
2494,9.198726958
2495,9.205403423
2496,9.192645527
2497,9.200884896
2498,9.227337683
2499,9.223917643
2500,9.239890477
2501,9.185743247
2502,9.189835
2503,9.21269362
2504,9.212975717
2505,9.190009137
2506,9.191258254
2507,9.196858002
2508,9.200522335
2509,9.20711917
2510,9.221136812
2511,9.156690899
2512,9.19511492
2513,9.180255718
2514,9.198530401
2515,9.247807154
2516,9.199719773
2517,9.228137391
2518,9.188612437
2519,9.207312458
2520,9.207471501
2521,9.200669136
2522,9.214610897
2523,9.209699436
2524,9.23981345
2525,9.174352552
2526,9.196160339
2527,9.159114837
2528,9.219770658
2529,9.208504154
2530,9.199565392
2531,9.195487819
2532,9.197090114
2533,9.241660999
2534,9.248649379
2535,9.19964364
2536,9.227284453
2537,9.221070095
2538,9.176977262
2539,9.205881895
2540,9.18250741
2541,9.244633085
2542,9.209767194
2543,9.193071462
2544,9.20702202
2545,9.197665911
2546,9.203699063
2547,9.217216004
2548,9.223462555
2549,9.170266529
2550,9.173050075
2551,9.252672272
2552,9.249470814
2553,9.205728083
2554,9.21258686
2555,9.216311503
2556,9.213020201
2557,9.226591393
2558,9.198882646
2559,9.228484567
2560,9.20676428
2561,9.212636258
2562,9.237985139
2563,9.204219243
2564,9.157723914
2565,9.193524888
2566,9.170261761
2567,9.224720696
2568,9.193312103
2569,9.247462999
2570,9.209302862
2571,9.192616865
2572,9.188098803
2573,9.214732102
2574,9.184455802
2575,9.226147684
2576,9.21465976
2577,9.193476893
2578,9.181261563
2579,9.201385625
2580,9.20327509
2581,9.224792025
2582,9.212902612
2583,9.205620627
2584,9.204383072
2585,9.195539447
2586,9.225199984
2587,9.189282333
2588,9.200017827
2589,9.203643927
2590,9.18573281
2591,9.216901648
2592,9.18416985
2593,9.207704166
2594,9.219128815
2595,9.221543479
2596,9.153290001
2597,9.180436452
2598,9.186791602
2599,9.207129761
2600,9.200619393
2601,9.20842496
2602,9.216035619
2603,9.172206626
2604,9.192828011
2605,9.230360485
2606,9.19798265
2607,9.252136536
2608,9.246475446
2609,9.204284955
2610,9.185892609
2611,9.162972008
2612,9.197643851
2613,9.227511112
2614,9.234905235
2615,9.203099021
2616,9.189834782
2617,9.201637665
2618,9.176698653
2619,9.200399588
2620,9.195974714
2621,9.217476386
2622,9.212784016
2623,9.244250173
2624,9.205767239
2625,9.200820002
2626,9.213557984
2627,9.207210647
2628,9.182207177
2629,9.190266574
2630,9.220278321
2631,9.189491139
2632,9.220874344
2633,9.185540862
2634,9.195490571
2635,9.189494268
2636,9.229708865
2637,9.202537757
2638,9.17253973
2639,9.222410447
2640,9.208693574
2641,9.176575646
2642,9.196184356
2643,9.242883031
2644,9.19503311
2645,9.217034735
2646,9.191852334
2647,9.212297194
2648,9.198640245
2649,9.250155227
2650,9.201769798
2651,9.198094798
2652,9.20896082
2653,9.185086166
2654,9.212056937
2655,9.237624639
2656,9.199077318
2657,9.191427137
2658,9.208438306
2659,9.175677406
2660,9.264282247
2661,9.162501885
2662,9.208546396
2663,9.193911113
2664,9.224934899
2665,9.211671049
2666,9.171357888
2667,9.236842154
2668,9.218761748
2669,9.197200112
2670,9.17517202
2671,9.220108547
2672,9.210717017
2673,9.206798519
2674,9.251490745
2675,9.233077218
2676,9.225192678
2677,9.221637239
2678,9.184249169
2679,9.23707295
2680,9.197466537
2681,9.222158579
2682,9.210838525
2683,9.236235463
2684,9.178733403
2685,9.20967698
2686,9.204063647
2687,9.210636057
2688,9.202917531
2689,9.201055259
2690,9.227094808
2691,9.187998914
2692,9.242018251
2693,9.209776501
2694,9.200273902
2695,9.207996777
2696,9.198477381
2697,9.19462441
2698,9.246416181
2699,9.207076035
2700,9.19943726
2701,9.236532625
2702,9.187686181
2703,9.223150268
2704,9.171558442
2705,9.230662185
2706,9.251545796
2707,9.211767054
2708,9.19757169
2709,9.239030364
2710,9.197187134
2711,9.229967579
2712,9.201043805
2713,9.202826185
2714,9.1996965
2715,9.222953287
2716,9.219892528
2717,9.239443159
2718,9.213140166
2719,9.233602972
2720,9.213204461
2721,9.197401528
2722,9.240417875
2723,9.25276383
2724,9.192295971
2725,9.201176915
2726,9.201332647
2727,9.190163874
2728,9.222259285
2729,9.204845821
2730,9.220036951
2731,9.222429298
2732,9.207661255
2733,9.200714558
2734,9.213802558
2735,9.209157674
2736,9.190843868
2737,9.217764919
2738,9.194158493
2739,9.20636247
2740,9.240777672
2741,9.218605011
2742,9.235356339
2743,9.238997279
2744,9.233488332
2745,9.241240124
2746,9.230423226
2747,9.217114355
2748,9.184923746
2749,9.186638791
2750,9.219273627
2751,9.233547469
2752,9.171841205
2753,9.226140226
2754,9.236943219
2755,9.234580701
2756,9.258540523
2757,9.241188076
2758,9.207589418
2759,9.180781159
2760,9.239592042
2761,9.223309345
2762,9.202420434
2763,9.2294358
2764,9.238608661
2765,9.247507398
2766,9.235022763
2767,9.225747625
2768,9.234919553
2769,9.264350222
2770,9.216634556
2771,9.240194949
2772,9.203310355
2773,9.205764531
2774,9.206816303
2775,9.224838346
2776,9.242342274
2777,9.229417446
2778,9.250760693
2779,9.265753032
2780,9.225861799
2781,9.227924679
2782,9.241057155
2783,9.250090068
2784,9.227941335
2785,9.228672696
2786,9.218230494
2787,9.262801706
2788,9.221494096
2789,9.261743599
2790,9.203429128
2791,9.198850024
2792,9.276218703
2793,9.237836006
2794,9.2241997
2795,9.227282124
2796,9.255938716
2797,9.23866876
2798,9.193308505
2799,9.239063332
2800,9.246397429
2801,9.235422948
2802,9.239957114
2803,9.262298482
2804,9.272567599
2805,9.227414205
2806,9.251431639
2807,9.246457688
2808,9.232924574
2809,9.248812056
2810,9.2815046
2811,9.228053914
2812,9.283514071
2813,9.243716773
2814,9.229433436
2815,9.227973356
2816,9.228203912
2817,9.254740349
2818,9.224119081
2819,9.218880556
2820,9.246608723
2821,9.266453252
2822,9.246658226
2823,9.226945134
2824,9.265960875
2825,9.274362158
2826,9.242525014
2827,9.273271821
2828,9.262380528
2829,9.256989212
2830,9.219827065
2831,9.254273902
2832,9.226905386
2833,9.240042618
2834,9.245453303
2835,9.273270169
2836,9.264969096
2837,9.272118611
2838,9.233713873
2839,9.216078698
2840,9.293993901
2841,9.242627516
2842,9.306898041
2843,9.277139564
2844,9.236646176
2845,9.229388042
2846,9.274446463
2847,9.236016842
2848,9.235481441
2849,9.266204393
2850,9.268431826
2851,9.238073163
2852,9.271716632
2853,9.224064721
2854,9.269929051
2855,9.258522241
2856,9.24939258
2857,9.28540648
2858,9.297804804
2859,9.269429453
2860,9.265293192
2861,9.279183977
2862,9.278406422
2863,9.255348892
2864,9.256221058
2865,9.239716798
2866,9.291551166
2867,9.274287372
2868,9.296455513
2869,9.25921478
2870,9.252772514
2871,9.244197911
2872,9.254727736
2873,9.254559791
2874,9.299787648
2875,9.300580992
2876,9.285807227
2877,9.290506146
2878,9.280574509
2879,9.276757336
2880,9.267481967
2881,9.26997005
2882,9.293061943
2883,9.300870215
2884,9.249045736
2885,9.303083642
2886,9.283302463
2887,9.284397561
2888,9.282151661
2889,9.27577169
2890,9.277534855
2891,9.294867971
2892,9.31198965
2893,9.295451237
2894,9.293664928
2895,9.312111955
2896,9.273812509
2897,9.274113502
2898,9.341811796
2899,9.310570198
2900,9.308841744
2901,9.294872742
2902,9.25654056
2903,9.280491245
2904,9.268091148
2905,9.320193445
2906,9.328705824
2907,9.343842549
2908,9.338580097
2909,9.334033701
2910,9.343228267
2911,9.269362463
2912,9.306020244
2913,9.301571998
2914,9.319227951
2915,9.269102798
2916,9.319331764
2917,9.289579983
2918,9.304522074
2919,9.283552642
2920,9.311103192
2921,9.301414141
2922,9.304353022
2923,9.329416072
2924,9.336441976
2925,9.289806738
2926,9.328626135
2927,9.314801268
2928,9.350507453
2929,9.32049818
2930,9.336325992
2931,9.329966482
2932,9.310422198
2933,9.320031803
2934,9.346028475
2935,9.311313073
2936,9.365768547
2937,9.334449985
2938,9.328800995
2939,9.325621811
2940,9.356115935
2941,9.324556357
2942,9.342958918
2943,9.290450567
2944,9.343460586
2945,9.345155801
2946,9.379643962
2947,9.34013642
2948,9.349471563
2949,9.336501931
2950,9.347042416
2951,9.350176833
2952,9.335358114
2953,9.365522899
2954,9.388513001
2955,9.37353004
2956,9.372523785
2957,9.331878241
2958,9.368351532
2959,9.353753584
2960,9.367596379
2961,9.369825942
2962,9.372912944
2963,9.356956762
2964,9.339327121
2965,9.350532731
2966,9.428410225
2967,9.384721099
2968,9.362083591
2969,9.367913944
2970,9.352237231
2971,9.333021586
2972,9.381154073
2973,9.379219394
2974,9.39307058
2975,9.374011695
2976,9.406704683
2977,9.426670613
2978,9.378885443
2979,9.383833196
2980,9.372431108
2981,9.398502528
2982,9.334292739
2983,9.387614708
2984,9.387776088
2985,9.401344237
2986,9.361455001
2987,9.406918929
2988,9.372992279
2989,9.398693161
2990,9.421233804
2991,9.395331967
2992,9.378069934
2993,9.389236139
2994,9.4019335
2995,9.382083641
2996,9.407211246
2997,9.347424011
2998,9.416748558
2999,9.40955423
3000,9.406893191
3001,9.424824522
3002,9.428186321
3003,9.436543735
3004,9.425275522
3005,9.431779611
3006,9.440840655
3007,9.430383323
3008,9.43359897
3009,9.406214034
3010,9.458377635
3011,9.46699593
3012,9.453629061
3013,9.455818005
3014,9.425628501
3015,9.416002226
3016,9.446824434
3017,9.41477868
3018,9.423292509
3019,9.432209762
3020,9.428000162
3021,9.441491705
3022,9.452004235
3023,9.44610097
3024,9.436126891
3025,9.438801387
3026,9.453701631
3027,9.446764842
3028,9.46023788
3029,9.487511715
3030,9.47259986
3031,9.450962669
3032,9.470794896
3033,9.459768967
3034,9.431721461
3035,9.448032018
3036,9.470671224
3037,9.436209147
3038,9.508181185
3039,9.471422172
3040,9.482969908
3041,9.492121421
3042,9.500140388
3043,9.448528542
3044,9.490742183
3045,9.476492139
3046,9.529346547
3047,9.516160658
3048,9.471316
3049,9.478988505
3050,9.490477908
3051,9.553793236
3052,9.484422288
3053,9.503304939
3054,9.500379094
3055,9.478438169
3056,9.480571833
3057,9.495895973
3058,9.466899359
3059,9.531738168
3060,9.534111287
3061,9.48115909
3062,9.538596968
3063,9.533895416
3064,9.513674355
3065,9.528325956
3066,9.512840351
3067,9.513556038
3068,9.573125605
3069,9.51808809
3070,9.533331612
3071,9.512849572
3072,9.52286778
3073,9.539503789
3074,9.521429019
3075,9.526026615
3076,9.527931648
3077,9.497192859
3078,9.552813526
3079,9.558020426
3080,9.541301864
3081,9.522899254
3082,9.560565361
3083,9.558141054
3084,9.533092534
3085,9.583966355
3086,9.556262682
3087,9.570011235
3088,9.583631189
3089,9.555123886
3090,9.58595439
3091,9.54282666
3092,9.579434804
3093,9.60289884
3094,9.575234705
3095,9.590968406
3096,9.593464485
3097,9.598949686
3098,9.591030108
3099,9.565865339
3100,9.577003772
3101,9.587646401
3102,9.607291737
3103,9.598225131
3104,9.626563289
3105,9.590988373
3106,9.64037503
3107,9.580853507
3108,9.622620173
3109,9.637621297
3110,9.628533934
3111,9.601928845
3112,9.632687978
3113,9.624778702
3114,9.647754259
3115,9.647457429
3116,9.654582327
3117,9.611190084
3118,9.641784304
3119,9.616366577
3120,9.643364033
3121,9.637599361
3122,9.664742648
3123,9.658811895
3124,9.625977773
3125,9.649328801
3126,9.670316308
3127,9.66009793
3128,9.655813198
3129,9.666572504
3130,9.667881804
3131,9.696423538
3132,9.657061138
3133,9.681144818
3134,9.688819916
3135,9.676462319
3136,9.678619859
3137,9.701324049
3138,9.675633552
3139,9.714590226
3140,9.703944339
3141,9.699842963
3142,9.698938887
3143,9.714339275
3144,9.713832504
3145,9.699018248
3146,9.696097359
3147,9.706634403
3148,9.745819453
3149,9.7186286
3150,9.680543748
3151,9.721437337
3152,9.691429857
3153,9.696294292
3154,9.697328715
3155,9.718627985
3156,9.697766486
3157,9.710924444
3158,9.745808657
3159,9.72902042
3160,9.71089133
3161,9.737602487
3162,9.718278025
3163,9.761634159
3164,9.748563998
3165,9.740599891
3166,9.770181354
3167,9.79017217
3168,9.757387521
3169,9.754163134
3170,9.742629851
3171,9.726958482
3172,9.726599327
3173,9.767697005
3174,9.749755639
3175,9.757280265
3176,9.776679069
3177,9.799129527
3178,9.790478076
3179,9.777066009
3180,9.767753851
3181,9.777218254
3182,9.771547741
3183,9.796612343
3184,9.762037892
3185,9.779297769
3186,9.788649285
3187,9.786292625
3188,9.762029236
3189,9.818374814
3190,9.800830202
3191,9.786676021
3192,9.821753114
3193,9.805084724
3194,9.795579748
3195,9.83383528
3196,9.828572873
3197,9.838488525
3198,9.821174711
3199,9.8640094
3200,9.832318508
3201,9.811591599
3202,9.818431538
3203,9.826448073
3204,9.829379019
3205,9.851989835
3206,9.827115078
3207,9.837242244
3208,9.856388755
3209,9.864144272
3210,9.890530273
3211,9.887633547
3212,9.81797551
3213,9.865746596
3214,9.840052076
3215,9.898380553
3216,9.820499958
3217,9.867015397
3218,9.879945422
3219,9.840603793
3220,9.909439514
3221,9.844195445
3222,9.862473133
3223,9.868370589
3224,9.875664379
3225,9.876786869
3226,9.895130411
3227,9.933586269
3228,9.872276235
3229,9.862623054
3230,9.898769537
3231,9.899722621
3232,9.897337237
3233,9.918418977
3234,9.906537437
3235,9.931605638
3236,9.923011491
3237,9.901469362
3238,9.887517962
3239,9.92631868
3240,9.916759902
3241,9.927690421
3242,9.921026648
3243,9.949454642
3244,9.956583873
3245,9.917598305
3246,9.943406073
3247,9.946027501
3248,9.920958809
3249,9.916252764
3250,9.956350849
3251,9.952212516
3252,9.934822392
3253,9.943601593
3254,9.940626369
3255,9.94926318
3256,9.952360792
3257,9.970381826
3258,9.978188166
3259,9.998800008
3260,9.980927323
3261,9.943730755
3262,9.966125859
3263,9.970478791
3264,10.00704731
3265,9.966571177
3266,9.955064055
3267,9.987749198
3268,9.96691294
3269,9.986421205
3270,9.99907618
3271,10.03951925
3272,10.00370152
3273,10.00588805
3274,10.04790563
3275,10.02559837
3276,9.983875197
3277,9.97393347
3278,9.984700927
3279,9.996684318
3280,10.03019056
3281,10.00759152
3282,10.02587351
3283,9.990589139
3284,10.03860738
3285,9.988142036
3286,10.01932054
3287,10.04127008
3288,9.999895162
3289,10.03258498
3290,9.980878656
3291,10.04810047
3292,10.03888801
3293,10.03290212
3294,10.06093153
3295,10.0446824
3296,10.05699022
3297,10.03605855
3298,10.04461676
3299,10.05381713
3300,10.07170252
3301,10.0381032
3302,10.06539415
3303,10.06562514
3304,10.07208481
3305,10.06990916
3306,10.02229996
3307,10.076939
3308,10.04197755
3309,10.06372289
3310,10.09583722
3311,10.07695597
3312,10.09644508
3313,10.0524613
3314,10.08331374
3315,10.08429064
3316,10.0666126
3317,10.11173636
3318,10.07536485
3319,10.05644993
3320,10.0748587
3321,10.10095679
3322,10.08530318
3323,10.10697821
3324,10.10861295
3325,10.10444243
3326,10.08344739
3327,10.12344671
3328,10.11496445
3329,10.16149078
3330,10.10778351
3331,10.09588905
3332,10.11174881
3333,10.15040518
3334,10.14335023
3335,10.15182882
3336,10.1275788
3337,10.12719174
3338,10.12610742
3339,10.08347659
3340,10.11605275
3341,10.11672054
3342,10.14341043
3343,10.15273898
3344,10.12888926
3345,10.14986389
3346,10.12948521
3347,10.13909216
3348,10.123899
3349,10.15843237
3350,10.12912788
3351,10.10942202
3352,10.15243421
3353,10.1478321
3354,10.13121078
3355,10.15816044
3356,10.15457898
3357,10.15006179
3358,10.18117848
3359,10.13790782
3360,10.14659201
3361,10.18354242
3362,10.12707943
3363,10.13305952
3364,10.15718775
3365,10.14289463
3366,10.13891034
3367,10.18082266
3368,10.14479173
3369,10.15092938
3370,10.12242596
3371,10.14244842
3372,10.17527949
3373,10.19880856
3374,10.17545575
3375,10.17195252
3376,10.1829226
3377,10.21125149
3378,10.17680132
3379,10.16392232
3380,10.1713555
3381,10.17276381
3382,10.18600264
3383,10.22594324
3384,10.16137858
3385,10.18973695
3386,10.19486685
3387,10.18170985
3388,10.18078344
3389,10.14622089
3390,10.17715618
3391,10.17315513
3392,10.19374878
3393,10.19022838
3394,10.20003515
3395,10.17729863
3396,10.18418303
3397,10.17788802
3398,10.18637876
3399,10.1538042
3400,10.16739209
3401,10.17778979
3402,10.19016247
3403,10.15917091
3404,10.20732916
3405,10.18818548
3406,10.18651161
3407,10.20880427
3408,10.20725717
3409,10.20141096
3410,10.17134231
3411,10.18315315
3412,10.20409029
3413,10.16317496
3414,10.20345134
3415,10.2109335
3416,10.20080628
3417,10.18949023
3418,10.23837096
3419,10.20722901
3420,10.21781315
3421,10.18072471
3422,10.20463168
3423,10.22860642
3424,10.21053013
3425,10.18724604
3426,10.20613016
3427,10.20643459
3428,10.21735299
3429,10.1770927
3430,10.18608304
3431,10.19494806
3432,10.21282453
3433,10.20396827
3434,10.22126909
3435,10.14704462
3436,10.1771407
3437,10.23400262
3438,10.18295078
3439,10.15506478
3440,10.19041719
3441,10.19777967
3442,10.17289099
3443,10.1927024
3444,10.19706543
3445,10.17102906
3446,10.17090578
3447,10.22617517
3448,10.19209742
3449,10.20256004
3450,10.20805958
3451,10.21415205
3452,10.21148012
3453,10.19953425
3454,10.19288481
3455,10.18535366
3456,10.20930955
3457,10.18605057
3458,10.17292392
3459,10.17810694
3460,10.20836432
3461,10.1994298
3462,10.23751245
3463,10.17813582
3464,10.1827372
3465,10.15806007
3466,10.19949692
3467,10.217456
3468,10.23606997
3469,10.18730537
3470,10.23026067
3471,10.2021569
3472,10.15437743
3473,10.18607498
3474,10.17751734
3475,10.17398957
3476,10.17212262
3477,10.20179974
3478,10.16890718
3479,10.21089222
3480,10.17949238
3481,10.18466145
3482,10.190004
3483,10.18420482
3484,10.18119607
3485,10.18215329
3486,10.14109554
3487,10.18591807
3488,10.20978411
3489,10.16686797
3490,10.16842165
3491,10.13909763
3492,10.20049923
3493,10.22309244
3494,10.16337589
3495,10.19565031
3496,10.14852105
3497,10.15583394
3498,10.19031094
3499,10.17679824
3500,10.17529771
3501,10.20733466
3502,10.16302165
3503,10.13403199
3504,10.1502493
3505,10.13714201
3506,10.17808967
3507,10.1742816
3508,10.14890352
3509,10.16913748
3510,10.14651411
3511,10.12553195
3512,10.13900997
3513,10.15947833
3514,10.14963004
3515,10.17753962
3516,10.15117114
3517,10.16203469
3518,10.14664318
3519,10.11083697
3520,10.16256516
3521,10.14497904
3522,10.15509083
3523,10.17990569
3524,10.16052631
3525,10.1227862
3526,10.14585139
3527,10.11646976
3528,10.16794675
3529,10.15843503
3530,10.12522933
3531,10.15447179
3532,10.11117603
3533,10.12941806
3534,10.12039059
3535,10.13399458
3536,10.11971107
3537,10.13863204
3538,10.1345173
3539,10.14541635
3540,10.10103221
3541,10.10002175
3542,10.14263762
3543,10.12649037
3544,10.1139967
3545,10.13282823
3546,10.09494811
3547,10.13481087
3548,10.11554529
3549,10.10687409
3550,10.12975245
3551,10.14336063
3552,10.13922772
3553,10.08751476
3554,10.13555522
3555,10.10001741
3556,10.11683568
3557,10.11238739
3558,10.11628066
3559,10.06344863
3560,10.07414299
3561,10.08511499
3562,10.05725662
3563,10.08112331
3564,10.09147798
3565,10.09454964
3566,10.10020009
3567,10.0953274
3568,10.08361967
3569,10.07859852
3570,10.11222383
3571,10.07067793
3572,10.06218576
3573,10.06921107
3574,10.08388009
3575,10.0478107
3576,10.05973445
3577,10.09607587
3578,10.07024915
3579,10.08693027
3580,10.07699049
3581,10.0447246
3582,10.06239073
3583,10.07542244
3584,10.04758748
3585,10.03420091
3586,10.04318188
3587,10.06758494
3588,10.03334991
3589,10.04070217
3590,10.04085943
3591,10.05812322
3592,10.01744083
3593,9.990748007
3594,10.00734541
3595,10.03115602
3596,10.00558503
3597,10.00615405
3598,10.05783728
3599,10.00528916
3600,10.01801525
3601,10.00420221
3602,10.01192332
3603,9.977271202
3604,10.0186378
3605,10.02416654
3606,10.00900248
3607,9.981925033
3608,9.998654552
3609,10.01227004
3610,9.996253506
3611,9.978884865
3612,9.974833178
3613,9.993101462
3614,9.959490483
3615,9.972555941
3616,9.956444481
3617,10.01509201
3618,9.983477884
3619,9.937146027
3620,9.993294346
3621,9.951672888
3622,9.971790616
3623,9.970669157
3624,9.965139006
3625,9.952355422
3626,9.990518684
3627,9.921390934
3628,9.915268287
3629,9.960483379
3630,9.930661953
3631,9.955768224
3632,9.945310764
3633,9.935113648
3634,9.909829545
3635,9.898377329
3636,9.946447816
3637,9.946246565
3638,9.94809622
3639,9.934741489
3640,9.970457774
3641,9.932833302
3642,9.934014909
3643,9.892556248
3644,9.947316912
3645,9.923382703
3646,9.895722649
3647,9.904347087
3648,9.877091935
3649,9.916245362
3650,9.903082623
3651,9.935463
3652,9.906239948
3653,9.886367858
3654,9.935178411
3655,9.921843903
3656,9.89721605
3657,9.921530861
3658,9.856203469
3659,9.902962313
3660,9.853682236
3661,9.86982211
3662,9.882413539
3663,9.851606711
3664,9.886187252
3665,9.86239134
3666,9.865502162
3667,9.860145205
3668,9.855843227
3669,9.830215398
3670,9.853523634
3671,9.812373918
3672,9.834948664
3673,9.852836866
3674,9.839619499
3675,9.850170074
3676,9.831086379
3677,9.868449777
3678,9.827460117
3679,9.838832892
3680,9.832640072
3681,9.812495274
3682,9.799171867
3683,9.817383987
3684,9.816481026
3685,9.808470291
3686,9.826487141
3687,9.824465685
3688,9.801118903
3689,9.824522194
3690,9.821472334
3691,9.84870984
3692,9.812679672
3693,9.792954045
3694,9.827920829
3695,9.782158187
3696,9.791588675
3697,9.808887562
3698,9.804533418
3699,9.778118979
3700,9.768642396
3701,9.786049772
3702,9.772451657
3703,9.76775005
3704,9.759257619
3705,9.770832746
3706,9.754118785
3707,9.756123074
3708,9.758891297
3709,9.761602187
3710,9.738521587
3711,9.769097142
3712,9.770078717
3713,9.732517012
3714,9.784928693
3715,9.733266222
3716,9.719979015
3717,9.764224153
3718,9.767057221
3719,9.774014488
3720,9.722467485
3721,9.714256037
3722,9.738865557
3723,9.759073933
3724,9.746391716
3725,9.725626469
3726,9.701340157
3727,9.750254528
3728,9.681928095
3729,9.682758821
3730,9.722464172
3731,9.713781353
3732,9.716681302
3733,9.638382732
3734,9.704993954
3735,9.730142088
3736,9.686153132
3737,9.664396018
3738,9.677819719
3739,9.699317053
3740,9.681733704
3741,9.688848744
3742,9.684204375
3743,9.696490293
3744,9.676370298
3745,9.697429944
3746,9.704400316
3747,9.670166968
3748,9.640768761
3749,9.67058288
3750,9.693607055
3751,9.66689071
3752,9.716534009
3753,9.672314085
3754,9.640247206
3755,9.67738824
3756,9.622112157
3757,9.659356654
3758,9.621053287
3759,9.665248989
3760,9.638947066
3761,9.668563501
3762,9.616693408
3763,9.640906532
3764,9.620557657
3765,9.651270199
3766,9.612815756
3767,9.613882027
3768,9.643445943
3769,9.587515552
3770,9.617711657
3771,9.657697585
3772,9.618461712
3773,9.600699497
3774,9.596532244
3775,9.589169304
3776,9.60529573
3777,9.574990427
3778,9.619768377
3779,9.635965215
3780,9.618348269
3781,9.609044428
3782,9.596562309
3783,9.598934114
3784,9.593014638
3785,9.584194169
3786,9.616655487
3787,9.59658578
3788,9.605827273
3789,9.6009345
3790,9.593293317
3791,9.583435113
3792,9.558165459
3793,9.589500573
3794,9.590498946
3795,9.573412489
3796,9.582133808
3797,9.57323097
3798,9.566863518
3799,9.559361553
3800,9.536880889
3801,9.579878732
3802,9.573759501
3803,9.57072264
3804,9.57564875
3805,9.529752018
3806,9.559978501
3807,9.516065809
3808,9.507717748
3809,9.567020892
3810,9.523785808
3811,9.510404964
3812,9.528750892
3813,9.522914083
3814,9.510749256
3815,9.534524293
3816,9.509828499
3817,9.518718364
3818,9.49462311
3819,9.534860396
3820,9.554551198
3821,9.488548555
3822,9.522618113
3823,9.535530676
3824,9.51315667
3825,9.502502004
3826,9.523650677
3827,9.47271572
3828,9.490916267
3829,9.490345922
3830,9.509710769
3831,9.491132955
3832,9.51360964
3833,9.485677505
3834,9.4612273
3835,9.516871465
3836,9.494446791
3837,9.489989056
3838,9.442468859
3839,9.504261476
3840,9.48597583
3841,9.496679295
3842,9.497250747
3843,9.474037397
3844,9.456974441
3845,9.453257967
3846,9.430018419
3847,9.479308757
3848,9.436730328
3849,9.467393524
3850,9.452101865
3851,9.471666799
3852,9.461099349
3853,9.487783869
3854,9.475971029
3855,9.443156308
3856,9.452645588
3857,9.470621308
3858,9.482562246
3859,9.476275517
3860,9.438044458
3861,9.457314225
3862,9.443636042
3863,9.420203196
3864,9.429922037
3865,9.43630502
3866,9.446880331
3867,9.455996542
3868,9.435532279
3869,9.406761833
3870,9.392302297
3871,9.403317657
3872,9.423299364
3873,9.442517475
3874,9.399728524
3875,9.42164592
3876,9.444592303
3877,9.443423962
3878,9.442294886
3879,9.416457184
3880,9.421997604
3881,9.430311436
3882,9.394238017
3883,9.39835591
3884,9.426122095
3885,9.404602233
3886,9.410351008
3887,9.383132825
3888,9.392806261
3889,9.408882989
3890,9.373191857
3891,9.378182507
3892,9.386550116
3893,9.437236121
3894,9.436259375
3895,9.384511388
3896,9.406449094
3897,9.402939231
3898,9.397243829
3899,9.389922412
3900,9.382059545
3901,9.352030618
3902,9.354389324
3903,9.396172994
3904,9.391809317
3905,9.366628544
3906,9.401992183
3907,9.377071655
3908,9.387007872
3909,9.3425016
3910,9.357040696
3911,9.360018775
3912,9.366791776
3913,9.35428171
3914,9.389838756
3915,9.363529852
3916,9.39140046
3917,9.364788279
3918,9.353049553
3919,9.351595369
3920,9.363647596
3921,9.356240396
3922,9.337856161
3923,9.324165835
3924,9.339305435
3925,9.352077171
3926,9.3472944
3927,9.366910676
3928,9.338845714
3929,9.368675695
3930,9.395979151
3931,9.328266644
3932,9.308098014
3933,9.380827569
3934,9.322915234
3935,9.309823003
3936,9.305781653
3937,9.313417161
3938,9.357779086
3939,9.340289871
3940,9.328780881
3941,9.350080313
3942,9.343306969
3943,9.359196039
3944,9.318325363
3945,9.338303096
3946,9.31197824
3947,9.316224695
3948,9.319169447
3949,9.305024602
3950,9.316678829
3951,9.319647951
3952,9.320655464
3953,9.350872969
3954,9.322506506
3955,9.314263198
3956,9.348419017
3957,9.312928371
3958,9.307852825
3959,9.306317333
3960,9.326387741
3961,9.308041398
3962,9.308934575
3963,9.328869025
3964,9.286478999
3965,9.275406303
3966,9.296219913
3967,9.301866487
3968,9.286180305
3969,9.292765898
3970,9.355256265
3971,9.346451013
3972,9.344900606
3973,9.313018608
3974,9.29725673
3975,9.310192059
3976,9.302184114
3977,9.310809895
3978,9.299597432
3979,9.283474727
3980,9.290648042
3981,9.303046048
3982,9.293865806
3983,9.311284959
3984,9.282493652
3985,9.313061939
3986,9.28811184
3987,9.318895224
3988,9.276960029
3989,9.340556489
3990,9.284039782
3991,9.261153271
3992,9.306929019
3993,9.254991672
3994,9.288012817
3995,9.299733902
3996,9.285317019
3997,9.285317505
3998,9.266845249
3999,9.290177638
4000,9.299608959
