Raman shift,Intensity
764.08093,3038.33421
770.26295,3049.12218
792.93036,3043.72819
825.93727,3019.29575
825.93727,3020.6521
825.93727,3022.00845
827.49161,3023.36479
829.04594,3030.14653
829.04594,3024.72114
830.60028,3031.50288
830.60028,3026.07749
830.60028,3027.43384
830.60028,3028.79018
832.15462,3032.85923
833.70896,3032.85923
833.70896,3034.21558
833.70896,3036.92827
833.70896,3038.28462
833.70896,3039.64097
833.70896,3040.99731
833.70896,3035.57192
835.2633,3042.35366
835.2633,3043.71001
835.2633,3040.99731
836.81764,3045.06636
838.37198,3046.42271
839.92632,3047.77905
841.48066,3049.1354
843.03499,3050.49175
844.58933,3050.49175
846.14367,3050.49175
847.69801,3051.8481
849.25235,3053.20444
850.80669,3054.56079
852.36103,3055.91714
853.91537,3057.27349
853.91537,3055.91714
855.4697,3058.62984
857.02404,3058.62984
858.57838,3058.62984
860.13272,3059.98618
861.68706,3059.98618
863.2414,3059.98618
864.79574,3059.98618
866.35008,3058.62984
867.90441,3057.27349
869.45875,3055.91714
871.01309,3054.56079
872.56743,3054.56079
874.12177,3054.56079
875.67611,3053.20444
877.23045,3053.20444
878.78479,3053.20444
880.33912,3054.56079
881.89346,3053.20444
883.4478,3054.56079
885.00214,3055.91714
886.55648,3057.27349
888.11082,3058.62984
889.66516,3058.62984
891.2195,3058.62984
892.77384,3057.27349
894.32817,3057.27349
895.88251,3055.91714
897.43685,3054.56079
898.99119,3053.20444
900.54553,3051.8481
902.09987,3051.8481
903.65421,3051.8481
905.20855,3053.20444
906.76288,3054.56079
906.76288,3053.20444
908.31722,3054.56079
909.87156,3055.91714
909.87156,3054.56079
911.4259,3055.91714
911.4259,3057.27349
912.98024,3058.62984
912.98024,3057.27349
912.98024,3059.98618
914.53458,3061.34253
916.08892,3061.34253
917.64326,3061.34253
919.19759,3061.34253
920.75193,3064.05523
920.75193,3062.69888
922.30627,3064.05523
923.86061,3065.41157
923.86061,3064.05523
925.41495,3065.41157
925.41495,3066.76792
925.41495,3069.48062
925.41495,3068.12427
925.41495,3070.83697
926.96929,3070.83697
928.52363,3070.83697
930.07797,3070.83697
931.6323,3070.83697
933.18664,3070.83697
934.74098,3070.83697
936.29532,3072.19331
936.29532,3073.54966
937.84966,3024.72114
937.84966,3073.54966
937.84966,3023.36479
937.84966,3074.90601
939.404,3074.90601
939.404,3026.07749
939.404,3027.43384
940.95834,3027.43384
940.95834,3074.90601
940.95834,3076.26236
942.51268,3034.21558
942.51268,3030.14653
942.51268,3028.79018
942.51268,3035.57192
942.51268,3036.92827
942.51268,3038.28462
942.51268,3032.85923
942.51268,3031.50288
942.51268,3076.26236
944.06701,3039.64097
944.06701,3076.26236
945.62135,3039.64097
945.62135,3077.6187
945.62135,3078.97505
945.62135,3080.3314
945.62135,3081.68775
945.62135,3083.04409
945.62135,3084.40044
945.62135,3085.75679
947.17569,3039.64097
947.17569,3040.99731
947.17569,3042.35366
947.17569,3085.75679
948.73003,3045.06636
948.73003,3043.71001
948.73003,3085.75679
950.28437,3085.75679
950.28437,3046.42271
950.28437,3045.06636
951.83871,3085.75679
951.83871,3046.42271
953.39305,3046.42271
953.39305,3087.11314
954.94739,3087.11314
954.94739,3046.42271
956.50173,3046.42271
956.50173,3087.11314
958.05606,3085.75679
958.05606,3046.42271
959.6104,3084.40044
959.6104,3046.42271
961.16474,3046.42271
961.16474,3047.77905
961.16474,3084.40044
961.16474,3066.76792
961.16474,3051.8481
961.16474,3049.1354
962.71908,3050.49175
962.71908,3083.04409
962.71908,3084.40044
962.71908,3085.75679
962.71908,3087.11314
962.71908,3088.46949
962.71908,3089.82583
962.71908,3095.25122
962.71908,3068.12427
962.71908,3054.56079
962.71908,3055.91714
962.71908,3053.20444
962.71908,3061.34253
962.71908,3065.41157
964.27342,3083.04409
964.27342,3099.32027
964.27342,3081.68775
964.27342,3097.96392
964.27342,3093.89488
964.27342,3069.48062
964.27342,3062.69888
964.27342,3064.05523
964.27342,3059.98618
964.27342,3058.62984
964.27342,3057.27349
964.27342,3096.60757
964.27342,3089.82583
964.27342,3084.40044
965.82776,3080.3314
965.82776,3092.53853
965.82776,3089.82583
965.82776,3084.40044
965.82776,3070.83697
965.82776,3072.19331
965.82776,3100.67662
967.3821,3074.90601
967.3821,3076.26236
967.3821,3077.6187
967.3821,3091.18218
967.3821,3078.97505
967.3821,3084.40044
967.3821,3102.03296
967.3821,3073.54966
968.93644,3103.38931
968.93644,3104.74566
968.93644,3084.40044
968.93644,3085.75679
970.49077,3087.11314
970.49077,3085.75679
970.49077,3106.10201
970.49077,3107.45835
970.49077,3118.30914
970.49077,3108.8147
972.04511,3115.59644
972.04511,3114.24009
972.04511,3112.88375
972.04511,3111.5274
972.04511,3110.17105
972.04511,3116.95279
972.04511,3119.66548
972.04511,3087.11314
973.59945,3121.02183
973.59945,3127.80357
973.59945,3130.51627
973.59945,3087.11314
973.59945,3129.15992
975.15379,3123.73453
975.15379,3126.44722
975.15379,3131.87261
975.15379,3125.09088
975.15379,3087.11314
975.15379,3122.37818
976.70813,3131.87261
976.70813,3088.46949
976.70813,3087.11314
978.26247,3131.87261
978.26247,3133.22896
978.26247,3088.46949
978.26247,3089.82583
978.26247,3091.18218
978.26247,3135.94166
978.26247,3138.65435
978.26247,3137.298
978.26247,3134.58531
979.81681,3091.18218
979.81681,3140.0107
979.81681,3092.53853
979.81681,3138.65435
981.37115,3141.36705
981.37115,3093.89488
981.37115,3142.7234
981.37115,3092.53853
981.37115,3144.07974
982.92548,3144.07974
982.92548,3093.89488
982.92548,3096.60757
984.47982,3099.32027
984.47982,3144.07974
984.47982,3095.25122
984.47982,3100.67662
984.47982,3097.96392
986.03416,3102.03296
986.03416,3144.07974
986.03416,3104.74566
987.5885,3146.79244
987.5885,3144.07974
987.5885,3106.10201
987.5885,3145.43609
987.5885,3103.38931
989.14284,3107.45835
989.14284,3108.8147
989.14284,3148.14879
990.69718,3111.5274
990.69718,3112.88375
990.69718,3110.17105
990.69718,3148.14879
992.25152,3115.59644
992.25152,3114.24009
992.25152,3116.95279
992.25152,3121.02183
992.25152,3149.50513
993.80586,3129.15992
993.80586,3127.80357
993.80586,3126.44722
993.80586,3125.09088
993.80586,3122.37818
993.80586,3119.66548
993.80586,3118.30914
993.80586,3123.73453
993.80586,3149.50513
993.80586,3150.86148
993.80586,3152.21783
993.80586,3153.57418
995.36019,3153.57418
995.36019,3130.51627
996.91453,3167.13766
996.91453,3153.57418
996.91453,3131.87261
996.91453,3137.298
996.91453,3135.94166
996.91453,3134.58531
996.91453,3133.22896
996.91453,3168.494
998.46887,3156.28687
998.46887,3154.93053
998.46887,3153.57418
998.46887,3164.42496
998.46887,3165.78131
998.46887,3171.2067
998.46887,3152.21783
998.46887,3173.91939
998.46887,3175.27574
998.46887,3176.63209
998.46887,3150.86148
998.46887,3179.34479
998.46887,3180.70113
998.46887,3149.50513
998.46887,3148.14879
998.46887,3146.79244
998.46887,3169.85035
998.46887,3145.43609
998.46887,3144.07974
998.46887,3163.06861
998.46887,3161.71226
998.46887,3160.35592
998.46887,3158.99957
998.46887,3157.64322
998.46887,3138.65435
998.46887,3140.0107
998.46887,3141.36705
998.46887,3142.7234
1000.02321,3188.83922
1000.02321,3187.48287
1000.02321,3184.77018
1000.02321,3183.41383
1000.02321,3182.05748
1000.02321,3177.98844
1000.02321,3172.56305
1000.02321,3152.21783
1001.57755,3152.21783
1001.57755,3190.19557
1001.57755,3186.12652
1001.57755,3191.55191
1003.13189,3192.90826
1003.13189,3150.86148
1003.13189,3205.11539
1003.13189,3203.75904
1003.13189,3202.4027
1003.13189,3194.26461
1003.13189,3199.69
1003.13189,3198.33365
1004.68623,3196.97731
1004.68623,3195.62096
1004.68623,3206.47174
1004.68623,3201.04635
1004.68623,3209.18444
1004.68623,3149.50513
1006.24057,3207.82809
1006.24057,3213.25348
1006.24057,3210.54078
1006.24057,3148.14879
1007.79491,3146.79244
1007.79491,3211.89713
1007.79491,3215.96617
1007.79491,3214.60983
1009.34924,3218.67887
1009.34924,3217.32252
1009.34924,3225.46061
1009.34924,3224.10426
1009.34924,3146.79244
1009.34924,3221.39157
1009.34924,3220.03522
1010.90358,3145.43609
1010.90358,3226.81696
1010.90358,3228.1733
1010.90358,3222.74791
1012.45792,3230.886
1012.45792,3145.43609
1012.45792,3229.52965
1014.01226,3232.24235
1014.01226,3145.43609
1015.5666,3234.95504
1015.5666,3236.31139
1015.5666,3146.79244
1015.5666,3233.5987
1017.12094,3240.38043
1017.12094,3148.14879
1017.12094,3237.66774
1017.12094,3239.02409
1018.67528,3239.02409
1018.67528,3237.66774
1018.67528,3236.31139
1018.67528,3149.50513
1018.67528,3240.38043
1020.22962,3237.66774
1020.22962,3234.95504
1020.22962,3150.86148
1020.22962,3236.31139
1021.78395,3236.31139
1021.78395,3150.86148
1021.78395,3234.95504
1023.33829,3236.31139
1023.33829,3150.86148
1023.33829,3233.5987
1024.89263,3232.24235
1024.89263,3149.50513
1024.89263,3233.5987
1024.89263,3234.95504
1026.44697,3232.24235
1026.44697,3228.1733
1026.44697,3226.81696
1026.44697,3148.14879
1026.44697,3229.52965
1026.44697,3230.886
1028.00131,3225.46061
1028.00131,3226.81696
1028.00131,3224.10426
1028.00131,3232.24235
1028.00131,3230.886
1028.00131,3229.52965
1028.00131,3228.1733
1028.00131,3214.60983
1028.00131,3215.96617
1028.00131,3217.32252
1028.00131,3222.74791
1028.00131,3146.79244
1029.55565,3218.67887
1029.55565,3221.39157
1029.55565,3222.74791
1029.55565,3213.25348
1029.55565,3225.46061
1029.55565,3228.1733
1029.55565,3226.81696
1029.55565,3224.10426
1029.55565,3145.43609
1031.10999,3213.25348
1031.10999,3209.18444
1031.10999,3222.74791
1031.10999,3221.39157
1031.10999,3146.79244
1031.10999,3145.43609
1031.10999,3220.03522
1031.10999,3211.89713
1031.10999,3203.75904
1031.10999,3202.4027
1031.10999,3224.10426
1031.10999,3225.46061
1031.10999,3226.81696
1032.66433,3214.60983
1032.66433,3217.32252
1032.66433,3207.82809
1032.66433,3220.03522
1032.66433,3221.39157
1032.66433,3205.11539
1032.66433,3201.04635
1032.66433,3199.69
1032.66433,3198.33365
1032.66433,3191.55191
1032.66433,3190.19557
1032.66433,3186.12652
1032.66433,3187.48287
1032.66433,3211.89713
1032.66433,3210.54078
1032.66433,3146.79244
1032.66433,3218.67887
1034.21866,3146.79244
1034.21866,3214.60983
1034.21866,3196.97731
1034.21866,3179.34479
1034.21866,3213.25348
1034.21866,3188.83922
1034.21866,3183.41383
1034.21866,3184.77018
1034.21866,3209.18444
1034.21866,3206.47174
1034.21866,3220.03522
1034.21866,3203.75904
1034.21866,3210.54078
1034.21866,3211.89713
1034.21866,3180.70113
1034.21866,3215.96617
1034.21866,3192.90826
1035.773,3203.75904
1035.773,3210.54078
1035.773,3194.26461
1035.773,3215.96617
1035.773,3195.62096
1035.773,3177.98844
1035.773,3176.63209
1035.773,3182.05748
1035.773,3209.18444
1035.773,3199.69
1035.773,3198.33365
1035.773,3196.97731
1035.773,3201.04635
1035.773,3202.4027
1035.773,3205.11539
1035.773,3148.14879
1035.773,3217.32252
1035.773,3218.67887
1035.773,3207.82809
1035.773,3206.47174
1037.32734,3149.50513
1037.32734,3167.13766
1037.32734,3168.494
1037.32734,3196.97731
1037.32734,3198.33365
1037.32734,3171.2067
1037.32734,3205.11539
1037.32734,3202.4027
1037.32734,3175.27574
1037.32734,3207.82809
1037.32734,3173.91939
1037.32734,3172.56305
1037.32734,3199.69
1037.32734,3195.62096
1037.32734,3194.26461
1037.32734,3206.47174
1037.32734,3201.04635
1038.88168,3187.48287
1038.88168,3164.42496
1038.88168,3165.78131
1038.88168,3167.13766
1038.88168,3176.63209
1038.88168,3194.26461
1038.88168,3190.19557
1038.88168,3169.85035
1038.88168,3192.90826
1038.88168,3149.50513
1038.88168,3163.06861
1038.88168,3175.27574
1038.88168,3195.62096
1040.43602,3179.34479
1040.43602,3168.494
1040.43602,3192.90826
1040.43602,3186.12652
1040.43602,3172.56305
1040.43602,3173.91939
1040.43602,3180.70113
1040.43602,3167.13766
1040.43602,3177.98844
1040.43602,3165.78131
1040.43602,3164.42496
1040.43602,3163.06861
1040.43602,3161.71226
1040.43602,3188.83922
1040.43602,3183.41383
1040.43602,3150.86148
1040.43602,3191.55191
1040.43602,3187.48287
1041.99036,3177.98844
1041.99036,3169.85035
1041.99036,3191.55191
1041.99036,3190.19557
1041.99036,3186.12652
1041.99036,3180.70113
1041.99036,3179.34479
1041.99036,3171.2067
1041.99036,3182.05748
1041.99036,3161.71226
1041.99036,3184.77018
1041.99036,3176.63209
1041.99036,3168.494
1041.99036,3160.35592
1041.99036,3152.21783
1041.99036,3188.83922
1043.5447,3152.21783
1043.5447,3171.2067
1043.5447,3184.77018
1043.5447,3183.41383
1043.5447,3182.05748
1043.5447,3160.35592
1043.5447,3172.56305
1043.5447,3173.91939
1043.5447,3175.27574
1043.5447,3153.57418
1043.5447,3156.28687
1043.5447,3154.93053
1043.5447,3157.64322
1043.5447,3158.99957
1043.5447,3169.85035
1045.09904,3154.93053
1045.09904,3158.99957
1045.09904,3157.64322
1045.09904,3156.28687
1045.09904,3153.57418
1045.09904,3152.21783
1045.09904,3140.0107
1045.09904,3141.36705
1045.09904,3142.7234
1045.09904,3144.07974
1046.65337,3145.43609
1046.65337,3152.21783
1046.65337,3153.57418
1046.65337,3148.14879
1046.65337,3141.36705
1046.65337,3140.0107
1046.65337,3150.86148
1046.65337,3149.50513
1046.65337,3138.65435
1046.65337,3146.79244
1046.65337,3144.07974
1046.65337,3142.7234
1048.20771,3153.57418
1048.20771,3145.43609
1048.20771,3148.14879
1048.20771,3152.21783
1048.20771,3146.79244
1048.20771,3138.65435
1048.20771,3150.86148
1048.20771,3149.50513
1049.76205,3131.87261
1049.76205,3152.21783
1049.76205,3146.79244
1049.76205,3138.65435
1049.76205,3130.51627
1049.76205,3129.15992
1049.76205,3127.80357
1049.76205,3150.86148
1049.76205,3153.57418
1051.31639,3133.22896
1051.31639,3152.21783
1051.31639,3153.57418
1051.31639,3125.09088
1051.31639,3149.50513
1051.31639,3137.298
1051.31639,3126.44722
1052.87073,3134.58531
1052.87073,3150.86148
1052.87073,3142.7234
1052.87073,3123.73453
1052.87073,3135.94166
1052.87073,3149.50513
1052.87073,3148.14879
1052.87073,3146.79244
1052.87073,3145.43609
1052.87073,3144.07974
1052.87073,3138.65435
1052.87073,3141.36705
1052.87073,3140.0107
1054.42507,3122.37818
1054.42507,3137.298
1054.42507,3148.14879
1054.42507,3146.79244
1055.97941,3129.15992
1055.97941,3126.44722
1055.97941,3127.80357
1055.97941,3123.73453
1055.97941,3122.37818
1055.97941,3130.51627
1055.97941,3135.94166
1055.97941,3121.02183
1055.97941,3125.09088
1055.97941,3145.43609
1055.97941,3144.07974
1057.53375,3110.17105
1057.53375,3112.88375
1057.53375,3123.73453
1057.53375,3135.94166
1057.53375,3127.80357
1057.53375,3131.87261
1057.53375,3126.44722
1057.53375,3122.37818
1057.53375,3130.51627
1057.53375,3141.36705
1057.53375,3142.7234
1057.53375,3111.5274
1057.53375,3114.24009
1057.53375,3125.09088
1057.53375,3119.66548
1057.53375,3129.15992
1057.53375,3121.02183
1059.08808,3108.8147
1059.08808,3116.95279
1059.08808,3102.03296
1059.08808,3118.30914
1059.08808,3111.5274
1059.08808,3121.02183
1059.08808,3141.36705
1059.08808,3107.45835
1059.08808,3106.10201
1059.08808,3119.66548
1059.08808,3122.37818
1059.08808,3123.73453
1059.08808,3125.09088
1059.08808,3131.87261
1059.08808,3127.80357
1059.08808,3133.22896
1059.08808,3134.58531
1059.08808,3115.59644
1059.08808,3110.17105
1059.08808,3100.67662
1059.08808,3112.88375
1059.08808,3118.30914
1060.64242,3118.30914
1060.64242,3112.88375
1060.64242,3104.74566
1060.64242,3103.38931
1060.64242,3099.32027
1060.64242,3097.96392
1060.64242,3096.60757
1060.64242,3093.89488
1060.64242,3092.53853
1060.64242,3119.66548
1060.64242,3133.22896
1060.64242,3134.58531
1060.64242,3102.03296
1060.64242,3116.95279
1060.64242,3115.59644
1060.64242,3114.24009
1060.64242,3140.0107
1060.64242,3141.36705
1060.64242,3108.8147
1060.64242,3129.15992
1060.64242,3126.44722
1060.64242,3121.02183
1060.64242,3100.67662
1062.19676,3106.10201
1062.19676,3119.66548
1062.19676,3103.38931
1062.19676,3135.94166
1062.19676,3104.74566
1062.19676,3099.32027
1062.19676,3097.96392
1062.19676,3093.89488
1062.19676,3100.67662
1062.19676,3102.03296
1062.19676,3118.30914
1062.19676,3114.24009
1062.19676,3084.40044
1062.19676,3085.75679
1062.19676,3088.46949
1062.19676,3089.82583
1062.19676,3091.18218
1062.19676,3095.25122
1062.19676,3115.59644
1062.19676,3137.298
1062.19676,3138.65435
1062.19676,3140.0107
1062.19676,3130.51627
1062.19676,3107.45835
1062.19676,3116.95279
1063.7511,3118.30914
1063.7511,3112.88375
1063.7511,3108.8147
1063.7511,3107.45835
1063.7511,3081.68775
1063.7511,3087.11314
1063.7511,3099.32027
1063.7511,3097.96392
1063.7511,3093.89488
1063.7511,3116.95279
1063.7511,3115.59644
1063.7511,3080.3314
1063.7511,3133.22896
1063.7511,3083.04409
1063.7511,3114.24009
1063.7511,3088.46949
1063.7511,3096.60757
1063.7511,3095.25122
1063.7511,3092.53853
1063.7511,3103.38931
1063.7511,3091.18218
1063.7511,3089.82583
1063.7511,3110.17105
1063.7511,3111.5274
1063.7511,3131.87261
1063.7511,3104.74566
1063.7511,3085.75679
1063.7511,3106.10201
1065.30544,3106.10201
1065.30544,3114.24009
1065.30544,3070.83697
1065.30544,3083.04409
1065.30544,3107.45835
1065.30544,3092.53853
1065.30544,3076.26236
1065.30544,3095.25122
1065.30544,3096.60757
1065.30544,3077.6187
1065.30544,3078.97505
1065.30544,3087.11314
1065.30544,3080.3314
1065.30544,3081.68775
1065.30544,3115.59644
1065.30544,3084.40044
1065.30544,3074.90601
1065.30544,3112.88375
1065.30544,3104.74566
1065.30544,3116.95279
1066.85978,3085.75679
1066.85978,3078.97505
1066.85978,3065.41157
1066.85978,3111.5274
1066.85978,3115.59644
1066.85978,3116.95279
1066.85978,3118.30914
1066.85978,3114.24009
1066.85978,3108.8147
1066.85978,3073.54966
1066.85978,3077.6187
1066.85978,3076.26236
1066.85978,3068.12427
1066.85978,3106.10201
1066.85978,3070.83697
1066.85978,3104.74566
1066.85978,3091.18218
1066.85978,3103.38931
1066.85978,3066.76792
1066.85978,3072.19331
1066.85978,3102.03296
1066.85978,3069.48062
1068.41412,3064.05523
1068.41412,3089.82583
1068.41412,3087.11314
1068.41412,3107.45835
1068.41412,3059.98618
1068.41412,3061.34253
1068.41412,3062.69888
1068.41412,3104.74566
1068.41412,3065.41157
1068.41412,3070.83697
1068.41412,3066.76792
1068.41412,3074.90601
1068.41412,3106.10201
1068.41412,3072.19331
1068.41412,3110.17105
1068.41412,3111.5274
1068.41412,3084.40044
1068.41412,3112.88375
1068.41412,3100.67662
1068.41412,3088.46949
1068.41412,3068.12427
1068.41412,3069.48062
1069.96846,3099.32027
1069.96846,3107.45835
1069.96846,3054.56079
1069.96846,3055.91714
1069.96846,3110.17105
1069.96846,3108.8147
1069.96846,3104.74566
1069.96846,3076.26236
1069.96846,3072.19331
1069.96846,3069.48062
1069.96846,3059.98618
1069.96846,3061.34253
1069.96846,3062.69888
1069.96846,3070.83697
1069.96846,3066.76792
1069.96846,3083.04409
1069.96846,3058.62984
1069.96846,3073.54966
1069.96846,3068.12427
1069.96846,3064.05523
1069.96846,3057.27349
1071.5228,3065.41157
1071.5228,3064.05523
1071.5228,3049.1354
1071.5228,3072.19331
1071.5228,3057.27349
1071.5228,3073.54966
1071.5228,3074.90601
1071.5228,3050.49175
1071.5228,3097.96392
1071.5228,3078.97505
1071.5228,3080.3314
1071.5228,3081.68775
1071.5228,3077.6187
1071.5228,3103.38931
1071.5228,3062.69888
1071.5228,3061.34253
1071.5228,3059.98618
1071.5228,3058.62984
1071.5228,3104.74566
1071.5228,3106.10201
1071.5228,3053.20444
1073.07713,3051.8481
1073.07713,3065.41157
1073.07713,3049.1354
1073.07713,3045.06636
1073.07713,3043.71001
1073.07713,3042.35366
1073.07713,3066.76792
1073.07713,3046.42271
1073.07713,3076.26236
1073.07713,3074.90601
1073.07713,3073.54966
1073.07713,3102.03296
1073.07713,3096.60757
1073.07713,3095.25122
1073.07713,3047.77905
1073.07713,3068.12427
1073.07713,3053.20444
1073.07713,3050.49175
1073.07713,3059.98618
1073.07713,3061.34253
1073.07713,3057.27349
1073.07713,3058.62984
1073.07713,3064.05523
1073.07713,3062.69888
1073.07713,3100.67662
1073.07713,3070.83697
1073.07713,3069.48062
1073.07713,3055.91714
1073.07713,3103.38931
1074.63147,3047.77905
1074.63147,3049.1354
1074.63147,3053.20444
1074.63147,3099.32027
1074.63147,3055.91714
1074.63147,3078.97505
1074.63147,3051.8481
1074.63147,3046.42271
1074.63147,3054.56079
1074.63147,3092.53853
1074.63147,3057.27349
1074.63147,3058.62984
1074.63147,3095.25122
1074.63147,3045.06636
1074.63147,3081.68775
1074.63147,3083.04409
1074.63147,3084.40044
1074.63147,3085.75679
1074.63147,3087.11314
1074.63147,3088.46949
1074.63147,3089.82583
1074.63147,3096.60757
1074.63147,3097.96392
1074.63147,3093.89488
1074.63147,3077.6187
1074.63147,3072.19331
1074.63147,3080.3314
1074.63147,3043.71001
1074.63147,3091.18218
1076.18581,3080.3314
1076.18581,3092.53853
1076.18581,3055.91714
1076.18581,3050.49175
1076.18581,3051.8481
1076.18581,3088.46949
1076.18581,3054.56079
1076.18581,3089.82583
1076.18581,3072.19331
1076.18581,3081.68775
1076.18581,3042.35366
1076.18581,3091.18218
1076.18581,3093.89488
1076.18581,3078.97505
1076.18581,3077.6187
1077.74015,3077.6187
1077.74015,3076.26236
1077.74015,3087.11314
1077.74015,3085.75679
1077.74015,3084.40044
1077.74015,3083.04409
1077.74015,3072.19331
1077.74015,3051.8481
1077.74015,3045.06636
1077.74015,3050.49175
1077.74015,3042.35366
1077.74015,3046.42271
1077.74015,3049.1354
1077.74015,3047.77905
1077.74015,3038.28462
1077.74015,3039.64097
1077.74015,3040.99731
1077.74015,3054.56079
1077.74015,3043.71001
1077.74015,3053.20444
1079.29449,3076.26236
1079.29449,3072.19331
1079.29449,3039.64097
1079.29449,3040.99731
1079.29449,3038.28462
1079.29449,3074.90601
1080.84883,3072.19331
1080.84883,3070.83697
1080.84883,3074.90601
1080.84883,3073.54966
1082.40317,3073.54966
1082.40317,3072.19331
1083.95751,3074.90601
1083.95751,3072.19331
1085.51184,3074.90601
1085.51184,3072.19331
1087.06618,3072.19331
1087.06618,3076.26236
1088.62052,3073.54966
1090.17486,3073.54966
1091.7292,3072.19331
1091.7292,3070.83697
1093.28354,3070.83697
1094.83788,3070.83697
1096.39222,3070.83697
1096.39222,3069.48062
1097.94655,3069.48062
1097.94655,3068.12427
1097.94655,3066.76792
1097.94655,3065.41157
1099.50089,3065.41157
1101.05523,3064.05523
1102.60957,3065.41157
1104.16391,3066.76792
1105.71825,3066.76792
1107.27259,3065.41157
1108.82693,3065.41157
1110.38126,3066.76792
1111.9356,3066.76792
1111.9356,3065.41157
1113.48994,3065.41157
1115.04428,3065.41157
1115.04428,3064.05523
1116.59862,3064.05523
1116.59862,3062.69888
1118.15296,3062.69888
1119.7073,3062.69888
1119.7073,3061.34253
1121.26164,3061.34253
1121.26164,3059.98618
1122.81598,3059.98618
1124.37031,3059.98618
1124.37031,3058.62984
1125.92465,3057.27349
1127.47899,3057.27349
1129.03333,3057.27349
1129.03333,3055.91714
1130.58767,3055.91714
1132.14201,3054.56079
1132.14201,3055.91714
1133.69635,3054.56079
1133.69635,3053.20444
1135.25069,3053.20444
1136.80502,3053.20444
1136.80502,3051.8481
1138.35936,3050.49175
1138.35936,3051.8481
1139.9137,3049.1354
1139.9137,3050.49175
1141.46804,3049.1354
1141.46804,3046.42271
1141.46804,3045.06636
1141.46804,3047.77905
1141.46804,3043.71001
1143.02238,3042.35366
1144.57672,3042.35366
1146.13106,3043.71001
1147.6854,3045.06636
1149.23973,3046.42271
1150.79407,3045.06636
1152.34841,3043.71001
1153.90275,3042.35366
1155.45709,3042.35366
1157.01143,3043.71001
1157.01143,3042.35366
1158.56577,3043.71001
1160.12011,3043.71001
1161.67444,3045.06636
1163.22878,3046.42271
1164.78312,3047.77905
1166.33746,3049.1354
1167.8918,3050.49175
1169.44614,3051.8481
1171.00048,3051.8481
1172.55482,3050.49175
1174.10915,3049.1354
1175.66349,3049.1354
1175.66349,3047.77905
1177.21783,3046.42271
1177.21783,3045.06636
1178.77217,3045.06636
1180.32651,3045.06636
1180.32651,3043.71001
1181.88085,3043.71001
1181.88085,3042.35366
1183.43519,3042.35366
1183.43519,3040.99731
1184.98953,3040.99731
1184.98953,3039.64097
1186.54387,3035.57192
1186.54387,3039.64097
1186.54387,3038.28462
1186.54387,3036.92827
1186.54387,3032.85923
1186.54387,3034.21558
1188.0982,3031.50288
1189.65254,3031.50288
1191.20688,3031.50288
1192.76122,3030.14653
1194.31556,3031.50288
1195.8699,3032.85923
1197.42424,3034.21558
1198.97858,3035.57192
1200.53291,3036.92827
1202.08725,3036.92827
1203.64159,3036.92827
1205.19593,3035.57192
1206.75027,3034.21558
1208.30461,3032.85923
1209.85895,3031.50288
1211.41329,3031.50288
1212.96762,3032.85923
1214.52196,3034.21558
1216.0763,3035.57192
1217.63064,3036.92827
1219.18498,3038.28462
1220.73932,3038.28462
1222.29366,3036.92827
1222.29366,3035.57192
1222.29366,3034.21558
1223.848,3034.21558
1225.40233,3034.21558
1226.95667,3034.21558
1228.51101,3034.21558
1230.06535,3032.85923
1231.61969,3031.50288
1233.17403,3030.14653
1234.72837,3028.79018
1236.28271,3027.43384
1237.83705,3027.43384
1237.83705,3028.79018
1237.83705,3030.14653
1239.39138,3031.50288
1239.39138,3032.85923
1239.39138,3034.21558
1239.39138,3035.57192
1240.94572,3035.57192
1240.94572,3036.92827
1240.94572,3038.28462
1240.94572,3039.64097
1242.50006,3039.64097
1242.50006,3040.99731
1244.0544,3042.35366
1244.0544,3043.71001
1244.0544,3040.99731
1245.60874,3045.06636
1245.60874,3043.71001
1247.16308,3045.06636
1248.71742,3046.42271
1248.71742,3045.06636
1250.27176,3045.06636
1251.82609,3043.71001
1253.38043,3045.06636
1254.93477,3046.42271
1256.48911,3046.42271
1258.04345,3043.71001
1258.04345,3042.35366
1258.04345,3045.06636
1259.59779,3040.99731
1259.59779,3039.64097
1259.59779,3038.28462
1259.59779,3042.35366
1261.15213,3036.92827
1262.70647,3035.57192
1264.2608,3034.21558
1265.81514,3035.57192
1267.36948,3035.57192
1268.92382,3035.57192
1270.47816,3036.92827
1270.47816,3039.64097
1270.47816,3040.99731
1270.47816,3038.28462
1272.0325,3042.35366
1272.0325,3040.99731
1273.58684,3043.71001
1273.58684,3042.35366
1275.14118,3043.71001
1275.14118,3045.06636
1276.69551,3045.06636
1278.24985,3045.06636
1279.80419,3045.06636
1281.35853,3045.06636
1282.91287,3046.42271
1284.46721,3047.77905
1286.02155,3049.1354
1287.57589,3055.91714
1287.57589,3050.49175
1287.57589,3051.8481
1287.57589,3053.20444
1287.57589,3054.56079
1287.57589,3057.27349
1289.13022,3055.91714
1290.68456,3054.56079
1292.2389,3053.20444
1293.79324,3051.8481
1295.34758,3051.8481
1296.90192,3051.8481
1298.45626,3050.49175
1300.0106,3050.49175
1301.56494,3051.8481
1303.11927,3053.20444
1304.67361,3054.56079
1306.22795,3055.91714
1307.78229,3055.91714
1309.33663,3054.56079
1310.89097,3053.20444
1312.44531,3054.56079
1313.99965,3055.91714
1315.55398,3057.27349
1317.10832,3057.27349
1318.66266,3057.27349
1320.217,3055.91714
1321.77134,3055.91714
1323.32568,3062.69888
1323.32568,3057.27349
1323.32568,3058.62984
1323.32568,3059.98618
1323.32568,3061.34253
1324.88002,3062.69888
1326.43436,3062.69888
1326.43436,3064.05523
1327.98869,3065.41157
1327.98869,3064.05523
1329.54303,3065.41157
1331.09737,3066.76792
1332.65171,3066.76792
1334.20605,3065.41157
1335.76039,3064.05523
1337.31473,3062.69888
1338.86907,3061.34253
1340.4234,3061.34253
1341.97774,3062.69888
1343.53208,3064.05523
1345.08642,3065.41157
1346.64076,3064.05523
1348.1951,3062.69888
1349.74944,3061.34253
1351.30378,3059.98618
1352.85812,3058.62984
1354.41245,3057.27349
1354.41245,3058.62984
1355.96679,3057.27349
1355.96679,3055.91714
1367.85823,3084.18306
1408.04136,3078.78908
1430.70877,3088.67805
1477.20522,3097.96392
1505.92334,3113.84997
1534.77277,3113.84997
1586.2896,3113.84997
1631.62442,3094.07203
1706.839,3078.78908
1758.35583,3059.01114
1787.20526,3038.33421
1827.38839,3063.50613
1861.3895,3038.33421
1896.87669,3066.76792
1896.87669,3065.41157
1896.87669,3068.12427
1898.43103,3070.83697
1898.43103,3069.48062
1898.43103,3064.05523
1899.98537,3073.54966
1899.98537,3058.62984
1899.98537,3057.27349
1899.98537,3062.69888
1899.98537,3072.19331
1899.98537,3061.34253
1901.53971,3055.91714
1901.53971,3059.98618
1903.09404,3053.20444
1903.09404,3051.8481
1903.09404,3050.49175
1903.09404,3049.1354
1903.09404,3047.77905
1903.09404,3046.42271
1903.09404,3045.06636
1903.09404,3043.71001
1903.09404,3054.56079
1904.64838,3042.35366
1904.64838,3040.99731
1904.64838,3043.71001
1906.20272,3042.35366
1907.75706,3043.71001
1909.3114,3043.71001
1910.86574,3045.06636
1912.42008,3043.71001
1913.97442,3038.28462
1913.97442,3042.35366
1913.97442,3040.99731
1913.97442,3039.64097
1913.97442,3036.92827
1915.52875,3035.57192
1915.52875,3036.92827
1917.08309,3035.57192
1918.63743,3035.57192
1920.19177,3036.92827
1921.74611,3038.28462
1923.30045,3038.28462
1924.85479,3039.64097
1926.40913,3039.64097
1927.96346,3039.64097
1929.5178,3040.99731
1931.07214,3040.99731
1932.62648,3040.99731
1934.18082,3039.64097
1935.73516,3038.28462
1937.2895,3039.64097
1938.84384,3038.28462
1940.39818,3039.64097
1941.95251,3039.64097
1943.50685,3040.99731
1945.06119,3039.64097
1946.61553,3040.99731
1948.16987,3040.99731
1949.72421,3039.64097
1951.27855,3039.64097
1952.83289,3038.28462
1952.83289,3039.64097
1954.38722,3038.28462
1955.94156,3035.57192
1955.94156,3036.92827
1957.4959,3034.21558
1959.05024,3032.85923
1960.60458,3032.85923
1962.15892,3032.85923
1963.71326,3034.21558
1965.2676,3043.71001
1965.2676,3034.21558
1966.82193,3039.64097
1966.82193,3042.35366
1966.82193,3034.21558
1966.82193,3045.06636
1966.82193,3040.99731
1968.37627,3049.1354
1968.37627,3035.57192
1968.37627,3046.42271
1968.37627,3036.92827
1968.37627,3038.28462
1968.37627,3047.77905
2039.63775,3008.66731
2092.18492,3014.06129
2155.03546,3023.95026
2304.43428,3028.44524
2362.13313,3043.72819
2460.01512,3043.72819
2511.53195,3038.33421
2569.23081,3038.33421
2643.41505,3043.72819
2718.62963,3053.61716
2781.48016,3049.12218
2832.997,3033.83923
2895.84754,3043.72819
2948.39471,3033.83923
3005.06322,3049.12218
3040.09467,3063.50613
3114.27891,3053.61716
3218.34292,3059.01114
3252.34403,3053.61716
3338.89231,3063.50613
3390.40915,3049.12218
3476.95743,3033.83923
3568.65739,3028.44524
3597.50682,3043.72819
3643.87197,3033.83923
3735.57194,3033.83923
3798.42247,3038.33421
3884.97076,3043.72819
3930.30557,3043.72819
