Raman shift,Intensity
762.87479,1872.67195
765.08702,1872.67195
767.29926,1872.67195
769.51149,1873.45286
771.72373,1873.45286
773.93596,1873.45286
776.1482,1873.45286
778.36044,1873.45286
780.57267,1873.45286
782.78491,1874.23378
784.99714,1874.23378
787.20938,1874.23378
789.42161,1874.23378
791.63385,1874.23378
793.84609,1874.23378
796.05832,1874.23378
798.27056,1874.23378
800.48279,1874.23378
802.69503,1874.23378
804.90726,1874.23378
807.1195,1874.23378
809.33173,1874.23378
811.54397,1874.23378
813.75621,1874.23378
815.96844,1874.23378
818.18068,1874.23378
820.39291,1874.23378
822.60515,1874.23378
824.81738,1874.23378
827.02962,1874.23378
829.24186,1874.23378
831.45409,1874.23378
833.66633,1874.23378
835.87856,1874.23378
838.0908,1874.23378
840.30303,1874.23378
842.51527,1874.23378
844.72751,1874.23378
846.93974,1874.23378
849.15198,1874.23378
851.36421,1874.23378
853.57645,1874.23378
855.78868,1874.23378
858.00092,1874.23378
860.21315,1874.23378
862.42539,1874.23378
864.63763,1874.23378
866.84986,1874.23378
869.0621,1874.23378
871.27433,1874.23378
873.48657,1874.23378
875.6988,1874.23378
877.91104,1874.23378
880.12328,1873.45286
882.33551,1872.67195
884.54775,1871.89104
886.75998,1871.11013
888.97222,1871.11013
891.18445,1871.11013
893.39669,1871.11013
895.60892,1871.89104
897.82116,1871.89104
900.0334,1871.89104
902.24563,1871.89104
904.45787,1871.89104
906.6701,1871.89104
908.88234,1871.89104
911.09457,1872.67195
913.30681,1871.89104
915.51905,1871.89104
917.73128,1871.89104
919.94352,1871.89104
922.15575,1871.89104
924.36799,1871.89104
926.58022,1871.89104
928.79246,1872.67195
931.0047,1872.67195
933.21693,1872.67195
935.42917,1872.67195
937.6414,1872.67195
939.85364,1872.67195
942.06587,1872.67195
944.27811,1873.45286
946.49034,1873.45286
946.49034,1874.23378
946.49034,1875.01469
946.49034,1875.7956
946.49034,1876.57652
946.49034,1877.35743
948.70258,1877.35743
948.70258,1878.13834
950.91482,1878.13834
953.12705,1878.13834
953.12705,1882.82382
955.33929,1878.13834
955.33929,1883.60473
955.33929,1884.38564
955.33929,1882.0429
957.55152,1887.50929
957.55152,1881.26199
957.55152,1888.29021
957.55152,1889.07112
957.55152,1889.85203
957.55152,1878.13834
957.55152,1885.16656
957.55152,1885.94747
957.55152,1886.72838
957.55152,1890.63295
959.76376,1879.70017
959.76376,1878.91925
959.76376,1878.13834
959.76376,1880.48108
959.76376,1891.41386
959.76376,1892.19477
959.76376,1892.97568
959.76376,1895.31842
959.76376,1894.53751
959.76376,1896.09934
961.97599,1893.7566
961.97599,1896.88025
961.97599,1897.66116
961.97599,1898.44207
961.97599,1899.22299
961.97599,1900.0039
961.97599,1900.78481
961.97599,1901.56572
961.97599,1902.34664
964.18823,1903.12755
964.18823,1903.90846
964.18823,1904.68938
964.18823,1905.47029
964.18823,1906.2512
964.18823,1907.03211
964.18823,1907.81303
964.18823,1908.59394
966.40047,1909.37485
966.40047,1910.15577
966.40047,1910.93668
966.40047,1911.71759
966.40047,1912.4985
966.40047,1913.27942
966.40047,1914.06033
966.40047,1914.84124
968.6127,1915.62215
968.6127,1916.40307
968.6127,1917.18398
968.6127,1917.96489
968.6127,1921.86946
968.6127,1919.52672
968.6127,1920.30763
968.6127,1921.08854
970.82494,1918.74581
970.82494,1922.65037
970.82494,1923.43128
970.82494,1924.2122
970.82494,1924.99311
970.82494,1925.77402
970.82494,1930.4595
970.82494,1927.33585
970.82494,1928.11676
970.82494,1928.89767
970.82494,1929.67859
973.03717,1926.55493
973.03717,1931.24041
973.03717,1932.02132
973.03717,1932.80224
973.03717,1933.58315
973.03717,1934.36406
973.03717,1937.48771
973.03717,1935.92589
973.03717,1936.7068
973.03717,1939.04954
973.03717,1938.26863
975.24941,1935.14497
975.24941,1939.83045
975.24941,1940.61136
975.24941,1941.39228
975.24941,1942.17319
975.24941,1946.07775
975.24941,1945.29684
975.24941,1944.51593
975.24941,1943.73502
977.46164,1942.9541
977.46164,1946.85867
977.46164,1947.63958
977.46164,1948.42049
977.46164,1949.2014
977.46164,1949.98232
977.46164,1950.76323
977.46164,1951.54414
977.46164,1952.32506
979.67388,1953.10597
979.67388,1953.88688
979.67388,1954.66779
979.67388,1955.44871
979.67388,1958.57236
979.67388,1957.01053
979.67388,1957.79145
979.67388,1959.35327
981.88611,1956.22962
981.88611,1960.13418
981.88611,1960.9151
981.88611,1961.69601
981.88611,1962.47692
981.88611,1963.25784
981.88611,1964.03875
981.88611,1964.81966
981.88611,1965.60057
984.09835,1966.38149
984.09835,1967.1624
984.09835,1967.94331
984.09835,1970.28605
984.09835,1969.50514
986.31059,1968.72422
986.31059,1971.06696
986.31059,1971.84788
986.31059,1972.62879
986.31059,1973.4097
986.31059,1974.19061
988.52282,1974.97153
990.73506,1974.97153
992.94729,1974.97153
995.15953,1975.75244
995.15953,1976.53335
995.15953,1977.31427
995.15953,1978.09518
997.37176,1978.09518
997.37176,1978.87609
999.584,1979.657
1001.79624,1980.43792
1006.22071,1971.06696
1006.22071,1971.84788
1006.22071,1975.75244
1006.22071,1974.97153
1006.22071,1974.19061
1006.22071,1973.4097
1008.43294,1972.62879
1008.43294,1976.53335
1008.43294,1977.31427
1008.43294,1970.28605
1010.64518,1969.50514
1010.64518,1968.72422
1010.64518,1967.94331
1010.64518,1962.47692
1010.64518,1966.38149
1010.64518,1965.60057
1012.85741,1964.81966
1012.85741,1964.03875
1012.85741,1963.25784
1012.85741,1967.1624
1012.85741,1961.69601
1012.85741,1960.9151
1015.06965,1960.13418
1015.06965,1959.35327
1015.06965,1958.57236
1015.06965,1957.79145
1015.06965,1957.01053
1015.06965,1953.88688
1015.06965,1955.44871
1015.06965,1954.66779
1015.06965,1949.2014
1017.28189,1956.22962
1017.28189,1952.32506
1017.28189,1951.54414
1017.28189,1953.10597
1017.28189,1949.98232
1017.28189,1950.76323
1017.28189,1948.42049
1017.28189,1947.63958
1017.28189,1946.85867
1017.28189,1946.07775
1019.49412,1945.29684
1019.49412,1944.51593
1019.49412,1943.73502
1019.49412,1942.9541
1019.49412,1942.17319
1019.49412,1939.04954
1019.49412,1940.61136
1019.49412,1939.83045
1021.70636,1941.39228
1021.70636,1938.26863
1021.70636,1937.48771
1021.70636,1936.7068
1021.70636,1935.92589
1021.70636,1935.14497
1021.70636,1934.36406
1021.70636,1933.58315
1021.70636,1932.80224
1021.70636,1932.02132
1021.70636,1931.24041
1021.70636,1903.90846
1021.70636,1910.15577
1021.70636,1909.37485
1021.70636,1908.59394
1021.70636,1907.81303
1021.70636,1926.55493
1021.70636,1907.03211
1021.70636,1906.2512
1021.70636,1905.47029
1021.70636,1904.68938
1023.91859,1930.4595
1023.91859,1923.43128
1023.91859,1924.2122
1023.91859,1924.99311
1023.91859,1925.77402
1023.91859,1927.33585
1023.91859,1928.11676
1023.91859,1928.89767
1023.91859,1929.67859
1023.91859,1910.93668
1023.91859,1922.65037
1023.91859,1903.12755
1023.91859,1902.34664
1023.91859,1897.66116
1023.91859,1898.44207
1023.91859,1899.22299
1023.91859,1900.0039
1023.91859,1900.78481
1023.91859,1901.56572
1026.13083,1917.96489
1026.13083,1913.27942
1026.13083,1896.09934
1026.13083,1895.31842
1026.13083,1921.86946
1026.13083,1921.08854
1026.13083,1920.30763
1026.13083,1919.52672
1026.13083,1918.74581
1026.13083,1893.7566
1026.13083,1917.18398
1026.13083,1916.40307
1026.13083,1892.97568
1026.13083,1911.71759
1026.13083,1896.88025
1028.34306,1912.4985
1028.34306,1914.06033
1028.34306,1914.84124
1028.34306,1894.53751
1028.34306,1891.41386
1028.34306,1915.62215
1028.34306,1892.19477
1030.5553,1889.07112
1030.5553,1890.63295
1032.76753,1889.85203
1032.76753,1888.29021
1032.76753,1886.72838
1032.76753,1887.50929
1032.76753,1885.94747
1034.97977,1883.60473
1034.97977,1885.16656
1034.97977,1884.38564
1034.97977,1881.26199
1034.97977,1882.82382
1034.97977,1882.0429
1037.19201,1880.48108
1037.19201,1879.70017
1039.40424,1880.48108
1039.40424,1878.91925
1039.40424,1879.70017
1041.61648,1880.48108
1041.61648,1878.91925
1043.82871,1878.91925
1043.82871,1880.48108
1046.04095,1878.91925
1046.04095,1880.48108
1048.25318,1878.91925
1048.25318,1880.48108
1050.46542,1878.13834
1050.46542,1876.57652
1050.46542,1875.7956
1050.46542,1875.01469
1050.46542,1877.35743
1050.46542,1878.91925
1050.46542,1880.48108
1050.46542,1874.23378
1052.67766,1873.45286
1054.88989,1873.45286
1057.10213,1874.23378
1059.31436,1874.23378
1061.5266,1873.45286
1063.73883,1874.23378
1065.95107,1875.01469
1068.16331,1874.23378
1070.37554,1874.23378
1072.58778,1874.23378
1072.58778,1875.01469
1074.80001,1875.01469
1074.80001,1875.7956
1077.01225,1875.7956
1077.01225,1876.57652
1079.22448,1876.57652
1079.22448,1877.35743
1079.22448,1880.48108
1079.22448,1878.91925
1079.22448,1879.70017
1079.22448,1878.13834
1081.43672,1880.48108
1081.43672,1881.26199
1083.64895,1881.26199
1085.86119,1881.26199
1088.07343,1881.26199
1090.28566,1881.26199
1092.4979,1882.82382
1092.4979,1881.26199
1092.4979,1882.0429
1092.4979,1883.60473
1094.71013,1883.60473
1096.92237,1884.38564
1096.92237,1883.60473
1099.1346,1884.38564
1101.34684,1885.16656
1101.34684,1884.38564
1103.55908,1885.16656
1103.55908,1885.94747
1105.77131,1885.94747
1105.77131,1886.72838
1107.98355,1890.63295
1107.98355,1886.72838
1107.98355,1889.85203
1107.98355,1889.07112
1107.98355,1888.29021
1107.98355,1887.50929
1110.19578,1890.63295
1112.40802,1890.63295
1114.62025,1891.41386
1116.83249,1891.41386
1119.04472,1890.63295
1121.25696,1891.41386
1123.4692,1891.41386
1125.68143,1891.41386
1127.89367,1892.19477
1130.1059,1892.19477
1132.31814,1892.19477
1134.53037,1891.41386
1136.74261,1890.63295
1138.95485,1890.63295
1141.16708,1890.63295
1143.37932,1891.41386
1145.59155,1892.19477
1147.80379,1892.97568
1150.01602,1892.97568
1152.22826,1892.97568
1154.4405,1891.41386
1154.4405,1890.63295
1154.4405,1889.85203
1154.4405,1889.07112
1154.4405,1892.97568
1154.4405,1892.19477
1156.65273,1888.29021
1156.65273,1889.07112
1158.86497,1888.29021
1161.0772,1888.29021
1163.28944,1888.29021
1165.50167,1888.29021
1165.50167,1887.50929
1167.71391,1882.82382
1167.71391,1886.72838
1167.71391,1884.38564
1167.71391,1885.16656
1167.71391,1883.60473
1167.71391,1885.94747
1167.71391,1887.50929
1169.92614,1882.82382
1172.13838,1882.82382
1174.35062,1882.82382
1176.56285,1882.0429
1176.56285,1882.82382
1178.77509,1882.0429
1180.98732,1881.26199
1180.98732,1880.48108
1180.98732,1882.0429
1183.19956,1879.70017
1183.19956,1880.48108
1185.41179,1876.57652
1185.41179,1875.7956
1185.41179,1875.01469
1185.41179,1879.70017
1185.41179,1877.35743
1185.41179,1878.13834
1185.41179,1878.91925
1187.62403,1875.01469
1189.83627,1875.01469
1189.83627,1874.23378
1192.0485,1874.23378
1192.0485,1873.45286
1194.26074,1872.67195
1194.26074,1873.45286
1196.47297,1872.67195
1198.68521,1873.45286
1200.89744,1874.23378
1203.10968,1875.01469
1205.32192,1875.01469
1207.53415,1875.01469
1209.74639,1875.01469
1211.95862,1875.01469
1214.17086,1875.01469
1216.38309,1875.01469
1218.59533,1875.01469
1220.80756,1875.01469
1223.0198,1874.23378
1225.23204,1873.45286
1227.44427,1872.67195
1229.65651,1871.89104
1231.86874,1872.67195
1234.08098,1873.45286
1236.29321,1874.23378
1238.50545,1875.01469
1240.71769,1875.01469
1242.92992,1875.01469
1245.14216,1875.01469
1247.35439,1875.01469
1249.56663,1875.01469
1251.77886,1875.01469
1253.9911,1874.23378
1256.20333,1873.45286
1258.41557,1872.67195
1260.62781,1871.89104
1262.84004,1871.11013
1265.05228,1871.89104
1267.26451,1871.89104
1269.47675,1871.89104
1271.68898,1872.67195
1273.90122,1873.45286
1276.11346,1874.23378
1278.32569,1874.23378
1280.53793,1874.23378
1282.75016,1874.23378
1284.9624,1874.23378
1287.17463,1873.45286
1289.38687,1872.67195
1291.59911,1871.89104
1293.81134,1871.11013
1296.02358,1871.11013
1298.23581,1871.11013
1300.44805,1871.11013
1302.66028,1871.11013
1304.87252,1871.89104
1307.08475,1871.11013
1309.29699,1871.11013
1311.50923,1871.11013
1313.72146,1871.89104
1315.9337,1872.67195
1318.14593,1873.45286
1320.35817,1874.23378
1322.5704,1874.23378
1324.78264,1874.23378
1326.99488,1874.23378
1329.20711,1873.45286
1331.41935,1872.67195
1333.63158,1871.89104
1335.84382,1871.11013
1338.05605,1871.11013
1340.26829,1871.11013
1342.48052,1871.11013
1344.69276,1871.11013
1346.905,1871.11013
1349.11723,1871.11013
1351.32947,1871.11013
1353.5417,1871.11013
1355.75394,1871.11013
1357.96617,1871.11013
1360.17841,1871.11013
1362.39065,1871.11013
1364.60288,1871.11013
1366.81512,1871.11013
1369.02735,1871.11013
1371.23959,1871.11013
1373.45182,1871.11013
1375.66406,1871.11013
1377.8763,1871.11013
1380.08853,1871.11013
1382.30077,1871.11013
1384.513,1871.11013
1386.72524,1871.11013
1388.93747,1871.11013
1391.14971,1871.11013
1393.36194,1871.11013
1395.57418,1871.11013
1397.78642,1871.11013
1399.99865,1871.11013
1402.21089,1871.11013
1404.42312,1871.11013
1406.63536,1871.11013
1408.84759,1871.11013
1411.05983,1871.11013
1413.27207,1871.11013
1415.4843,1871.89104
1417.69654,1872.67195
1419.90877,1873.45286
1422.12101,1874.23378
1424.33324,1874.23378
1426.54548,1874.23378
1428.75772,1874.23378
1430.96995,1874.23378
1433.18219,1874.23378
1435.39442,1874.23378
1437.60666,1873.45286
1439.81889,1872.67195
1442.03113,1873.45286
1444.24336,1873.45286
1446.4556,1873.45286
1448.66784,1872.67195
1450.88007,1871.89104
1453.09231,1871.11013
1455.30454,1871.11013
1457.51678,1871.11013
1459.72901,1871.11013
1461.94125,1871.11013
1464.15349,1871.11013
1466.36572,1871.11013
1468.57796,1871.11013
1470.79019,1871.11013
1473.00243,1871.11013
1475.21466,1871.11013
1477.4269,1871.11013
1479.63913,1871.11013
1481.85137,1871.11013
1484.06361,1871.11013
1486.27584,1871.11013
1488.48808,1871.11013
1490.70031,1871.11013
1492.91255,1871.11013
1495.12478,1871.11013
1497.33702,1871.11013
1499.54926,1871.11013
1501.76149,1871.11013
1503.97373,1871.11013
1506.18596,1871.11013
1508.3982,1871.11013
1510.61043,1871.11013
1512.82267,1871.11013
1515.03491,1871.11013
1517.24714,1871.11013
1519.45938,1871.11013
1521.67161,1871.11013
1523.88385,1871.11013
1526.09608,1871.11013
1528.30832,1871.11013
1530.52055,1871.89104
1532.73279,1872.67195
1534.94503,1873.45286
1537.15726,1873.45286
1539.3695,1873.45286
1541.58173,1873.45286
1543.79397,1873.45286
1546.0062,1873.45286
1548.21844,1873.45286
1550.43068,1873.45286
1552.64291,1873.45286
1554.85515,1873.45286
1557.06738,1864.86282
1557.06738,1865.64374
1557.06738,1866.42465
1557.06738,1867.20556
1557.06738,1871.11013
1557.06738,1871.89104
1557.06738,1872.67195
1559.27962,1871.89104
1559.27962,1867.98647
1559.27962,1868.76739
1559.27962,1869.5483
1559.27962,1870.32921
1559.27962,1872.67195
1561.49185,1872.67195
1561.49185,1871.89104
1563.70409,1871.89104
1563.70409,1872.67195
1565.91633,1872.67195
1565.91633,1871.89104
1568.12856,1872.67195
1568.12856,1871.89104
1570.3408,1871.89104
1570.3408,1872.67195
1572.55303,1872.67195
1572.55303,1871.89104
1574.76527,1871.89104
1574.76527,1872.67195
1576.9775,1871.89104
1576.9775,1872.67195
1579.18974,1872.67195
1579.18974,1871.89104
1581.40197,1871.89104
1581.40197,1871.11013
1583.61421,1871.11013
1583.61421,1871.89104
1585.82645,1871.11013
1585.82645,1871.89104
1588.03868,1871.89104
1588.03868,1871.11013
1590.25092,1871.11013
1590.25092,1871.89104
1592.46315,1871.89104
1592.46315,1871.11013
1594.67539,1871.89104
1594.67539,1871.11013
1596.88762,1871.11013
1596.88762,1871.89104
1599.09986,1871.89104
1599.09986,1871.11013
1601.3121,1871.89104
1601.3121,1871.11013
1603.52433,1871.11013
1603.52433,1871.89104
1605.73657,1871.11013
1605.73657,1871.89104
1607.9488,1871.11013
1607.9488,1871.89104
1610.16104,1871.89104
1610.16104,1871.11013
1612.37327,1871.11013
1612.37327,1871.89104
1614.58551,1871.89104
1614.58551,1871.11013
1616.79774,1871.89104
1616.79774,1871.11013
1619.00998,1871.11013
1619.00998,1871.89104
1621.22222,1871.11013
1621.22222,1871.89104
1623.43445,1871.11013
1623.43445,1871.89104
1625.64669,1871.89104
1625.64669,1871.11013
1627.85892,1871.11013
1627.85892,1871.89104
1630.07116,1871.11013
1630.07116,1871.89104
1632.28339,1871.89104
1632.28339,1871.11013
1634.49563,1871.89104
1634.49563,1871.11013
1636.70787,1871.11013
1636.70787,1871.89104
1638.9201,1871.11013
1638.9201,1871.89104
1641.13234,1871.89104
1641.13234,1871.11013
1643.34457,1871.89104
1643.34457,1871.11013
1645.55681,1871.11013
1645.55681,1871.89104
1647.76904,1871.11013
1647.76904,1871.89104
1649.98128,1871.89104
1649.98128,1871.11013
1652.19352,1871.11013
1652.19352,1871.89104
1654.40575,1871.89104
1654.40575,1871.11013
1656.61799,1871.11013
1656.61799,1871.89104
1658.83022,1871.89104
1658.83022,1871.11013
1661.04246,1871.11013
1661.04246,1871.89104
1663.25469,1871.11013
1663.25469,1871.89104
1665.46693,1871.11013
1665.46693,1871.89104
1667.67916,1871.89104
1667.67916,1871.11013
1669.8914,1871.89104
1669.8914,1871.11013
1672.10364,1871.89104
1672.10364,1871.11013
1674.31587,1871.89104
1674.31587,1871.11013
1676.52811,1871.89104
1676.52811,1871.11013
1678.74034,1871.11013
1678.74034,1871.89104
1680.95258,1871.11013
1680.95258,1871.89104
1683.16481,1871.11013
1683.16481,1871.89104
1685.37705,1871.89104
1685.37705,1871.11013
1687.58929,1871.89104
1687.58929,1871.11013
1689.80152,1871.11013
1689.80152,1871.89104
1692.01376,1871.11013
1692.01376,1871.89104
1694.22599,1871.11013
1694.22599,1871.89104
1696.43823,1871.89104
1696.43823,1871.11013
1698.65046,1871.89104
1698.65046,1871.11013
1700.8627,1871.11013
1700.8627,1871.89104
1703.07493,1871.89104
1703.07493,1871.11013
1705.28717,1871.89104
1705.28717,1871.11013
1707.49941,1871.89104
1707.49941,1871.11013
1709.71164,1871.89104
1709.71164,1871.11013
1711.92388,1871.89104
1711.92388,1871.11013
1714.13611,1871.89104
1714.13611,1871.11013
1716.34835,1871.89104
1716.34835,1871.11013
1718.56058,1871.89104
1718.56058,1871.11013
1720.77282,1871.11013
1720.77282,1871.89104
1722.98506,1871.11013
1722.98506,1871.89104
1725.19729,1871.89104
1725.19729,1871.11013
1727.40953,1871.11013
1727.40953,1871.89104
1729.62176,1871.11013
1729.62176,1871.89104
1731.834,1871.89104
1731.834,1871.11013
1734.04623,1871.89104
1734.04623,1871.11013
1736.25847,1871.11013
1736.25847,1871.89104
1738.47071,1871.89104
1738.47071,1871.11013
1740.68294,1871.11013
1740.68294,1871.89104
1742.89518,1871.11013
1742.89518,1871.89104
1745.10741,1871.89104
1745.10741,1871.11013
1747.31965,1871.11013
1747.31965,1871.89104
1749.53188,1871.11013
1749.53188,1871.89104
1751.74412,1871.89104
1751.74412,1871.11013
1753.95635,1871.89104
1753.95635,1871.11013
1756.16859,1871.89104
1756.16859,1871.11013
1758.38083,1871.11013
1758.38083,1871.89104
1760.59306,1871.89104
1760.59306,1871.11013
1762.8053,1871.11013
1762.8053,1871.89104
1765.01753,1871.89104
1765.01753,1871.11013
1767.22977,1871.11013
1767.22977,1871.89104
1769.442,1871.89104
1769.442,1871.11013
1771.65424,1871.89104
1771.65424,1871.11013
1773.86648,1871.89104
1773.86648,1871.11013
1776.07871,1871.11013
1776.07871,1871.89104
1778.29095,1871.11013
1778.29095,1871.89104
1780.50318,1871.11013
1780.50318,1871.89104
1782.71542,1871.11013
1782.71542,1871.89104
1784.92765,1871.89104
1784.92765,1871.11013
1787.13989,1871.89104
1787.13989,1871.11013
1789.35213,1871.11013
1789.35213,1871.89104
1791.56436,1871.11013
1791.56436,1871.89104
1793.7766,1871.89104
1793.7766,1871.11013
1795.98883,1871.11013
1795.98883,1871.89104
1798.20107,1871.11013
1798.20107,1871.89104
1800.4133,1871.89104
1800.4133,1871.11013
1802.62554,1871.11013
1802.62554,1871.89104
1804.83777,1871.89104
1804.83777,1871.11013
1807.05001,1871.11013
1807.05001,1871.89104
1809.26225,1871.89104
1809.26225,1871.11013
1811.47448,1871.11013
1811.47448,1871.89104
1813.68672,1871.11013
1813.68672,1871.89104
1815.89895,1871.11013
1815.89895,1871.89104
1818.11119,1871.89104
1818.11119,1871.11013
1820.32342,1871.11013
1820.32342,1871.89104
1822.53566,1871.89104
1822.53566,1871.11013
1824.7479,1871.89104
1824.7479,1871.11013
1826.96013,1871.11013
1826.96013,1871.89104
1829.17237,1871.11013
1829.17237,1871.89104
1831.3846,1871.11013
1831.3846,1871.89104
1833.59684,1871.89104
1833.59684,1871.11013
1835.80907,1871.11013
1835.80907,1871.89104
1838.02131,1871.89104
1838.02131,1871.11013
1840.23354,1871.11013
1840.23354,1871.89104
1842.44578,1871.89104
1842.44578,1871.11013
1844.65802,1871.89104
1844.65802,1871.11013
1846.87025,1871.11013
1846.87025,1871.89104
1849.08249,1871.89104
1849.08249,1871.11013
1851.29472,1871.89104
1851.29472,1871.11013
1853.50696,1871.89104
1853.50696,1871.11013
1855.71919,1871.11013
1855.71919,1871.89104
1857.93143,1871.11013
1857.93143,1871.89104
1860.14367,1871.11013
1860.14367,1871.89104
1862.3559,1871.89104
1862.3559,1871.11013
1864.56814,1872.67195
1864.56814,1871.11013
1866.78037,1873.45286
1866.78037,1871.11013
1868.99261,1871.11013
1868.99261,1874.23378
1871.20484,1874.23378
1871.20484,1871.11013
1873.41708,1871.11013
1873.41708,1874.23378
1875.62932,1874.23378
1875.62932,1871.11013
1877.84155,1871.11013
1877.84155,1874.23378
1880.05379,1874.23378
1880.05379,1871.11013
1882.26602,1874.23378
1882.26602,1870.32921
1884.47826,1870.32921
1884.47826,1873.45286
1886.69049,1870.32921
1886.69049,1873.45286
1888.90273,1873.45286
1888.90273,1870.32921
1891.11496,1873.45286
1891.11496,1870.32921
1893.3272,1870.32921
1893.3272,1873.45286
1895.53944,1870.32921
1895.53944,1873.45286
1897.75167,1873.45286
1897.75167,1871.11013
1899.96391,1873.45286
1899.96391,1871.89104
1902.17614,1873.45286
1902.17614,1872.67195
1904.38838,1872.67195
1904.38838,1873.45286
1906.60061,1871.89104
1906.60061,1873.45286
1908.81285,1871.11013
1908.81285,1873.45286
1911.02509,1870.32921
1911.02509,1873.45286
1913.23732,1870.32921
1913.23732,1873.45286
1915.44956,1870.32921
1915.44956,1873.45286
1917.66179,1873.45286
1917.66179,1870.32921
1919.87403,1870.32921
1919.87403,1873.45286
1922.08626,1870.32921
1922.08626,1873.45286
1924.2985,1870.32921
1924.2985,1873.45286
1926.51073,1870.32921
1926.51073,1873.45286
1928.72297,1870.32921
1928.72297,1873.45286
1930.93521,1873.45286
1930.93521,1870.32921
1933.14744,1873.45286
1933.14744,1870.32921
1935.35968,1870.32921
1935.35968,1873.45286
1937.57191,1870.32921
1937.57191,1873.45286
1939.78415,1870.32921
1939.78415,1873.45286
1941.99638,1870.32921
1941.99638,1873.45286
1944.20862,1873.45286
1944.20862,1870.32921
1946.42086,1873.45286
1946.42086,1870.32921
1948.63309,1870.32921
1948.63309,1873.45286
1950.84533,1873.45286
1950.84533,1870.32921
1953.05756,1870.32921
1953.05756,1873.45286
1955.2698,1870.32921
1955.2698,1873.45286
1957.48203,1870.32921
1957.48203,1873.45286
1959.69427,1870.32921
1959.69427,1873.45286
1961.90651,1873.45286
1961.90651,1870.32921
1964.11874,1870.32921
1964.11874,1873.45286
1966.33098,1873.45286
1966.33098,1870.32921
1968.54321,1873.45286
1968.54321,1870.32921
1970.75545,1870.32921
1970.75545,1873.45286
1972.96768,1873.45286
1972.96768,1870.32921
1975.17992,1870.32921
1975.17992,1873.45286
1977.39215,1873.45286
1977.39215,1870.32921
1979.60439,1870.32921
1979.60439,1873.45286
1981.81663,1873.45286
1981.81663,1870.32921
1984.02886,1870.32921
1984.02886,1873.45286
1986.2411,1870.32921
1986.2411,1873.45286
1988.45333,1870.32921
1988.45333,1873.45286
1990.66557,1870.32921
1990.66557,1873.45286
1992.8778,1870.32921
1992.8778,1873.45286
1995.09004,1870.32921
1995.09004,1873.45286
1997.30228,1870.32921
1997.30228,1873.45286
1999.51451,1873.45286
1999.51451,1870.32921
2001.72675,1873.45286
2001.72675,1870.32921
2003.93898,1870.32921
2003.93898,1873.45286
2006.15122,1873.45286
2006.15122,1870.32921
2008.36345,1873.45286
2008.36345,1870.32921
2010.57569,1873.45286
2010.57569,1870.32921
2012.78793,1873.45286
2012.78793,1870.32921
2015.00016,1873.45286
2015.00016,1870.32921
2017.2124,1870.32921
2017.2124,1873.45286
2019.42463,1873.45286
2019.42463,1870.32921
2021.63687,1870.32921
2021.63687,1873.45286
2023.8491,1873.45286
2023.8491,1870.32921
2026.06134,1870.32921
2026.06134,1873.45286
2028.27357,1870.32921
2028.27357,1873.45286
2030.48581,1870.32921
2030.48581,1873.45286
2032.69805,1873.45286
2032.69805,1870.32921
2034.91028,1873.45286
2034.91028,1870.32921
2037.12252,1873.45286
2037.12252,1870.32921
2039.33475,1873.45286
2039.33475,1870.32921
2041.54699,1873.45286
2041.54699,1870.32921
2043.75922,1870.32921
2043.75922,1873.45286
2045.97146,1873.45286
2045.97146,1870.32921
2048.1837,1870.32921
2048.1837,1873.45286
2050.39593,1870.32921
2050.39593,1873.45286
2052.60817,1873.45286
2052.60817,1870.32921
2054.8204,1873.45286
2054.8204,1870.32921
2057.03264,1870.32921
2057.03264,1873.45286
2059.24487,1870.32921
2059.24487,1873.45286
2061.45711,1870.32921
2061.45711,1873.45286
2063.66934,1873.45286
2063.66934,1870.32921
2065.88158,1870.32921
2065.88158,1873.45286
2068.09382,1873.45286
2068.09382,1870.32921
2070.30605,1873.45286
2070.30605,1870.32921
2072.51829,1870.32921
2072.51829,1873.45286
2074.73052,1870.32921
2074.73052,1873.45286
2076.94276,1870.32921
2076.94276,1873.45286
2079.15499,1873.45286
2079.15499,1870.32921
2081.36723,1870.32921
2081.36723,1873.45286
2083.57947,1873.45286
2083.57947,1870.32921
2085.7917,1870.32921
2085.7917,1873.45286
2088.00394,1873.45286
2088.00394,1870.32921
2090.21617,1870.32921
2090.21617,1873.45286
2092.42841,1873.45286
2092.42841,1870.32921
2094.64064,1873.45286
2094.64064,1870.32921
2096.85288,1873.45286
2096.85288,1870.32921
2099.06512,1870.32921
2099.06512,1873.45286
2101.27735,1873.45286
2101.27735,1870.32921
2103.48959,1870.32921
2103.48959,1873.45286
2105.70182,1873.45286
2105.70182,1870.32921
2107.91406,1873.45286
2107.91406,1870.32921
2110.12629,1873.45286
2110.12629,1870.32921
2112.33853,1873.45286
2112.33853,1870.32921
2114.55076,1873.45286
2114.55076,1870.32921
2116.763,1870.32921
2116.763,1873.45286
2118.97524,1870.32921
2118.97524,1873.45286
2121.18747,1873.45286
2121.18747,1870.32921
2123.39971,1873.45286
2123.39971,1870.32921
2125.61194,1873.45286
2125.61194,1870.32921
2127.82418,1870.32921
2127.82418,1873.45286
2130.03641,1870.32921
2130.03641,1873.45286
2132.24865,1873.45286
2132.24865,1870.32921
2134.46089,1873.45286
2134.46089,1870.32921
2136.67312,1873.45286
2136.67312,1870.32921
2138.88536,1870.32921
2138.88536,1873.45286
2141.09759,1870.32921
2141.09759,1873.45286
2143.30983,1870.32921
2143.30983,1873.45286
2145.52206,1870.32921
2145.52206,1873.45286
2147.7343,1873.45286
2147.7343,1870.32921
2149.94654,1873.45286
2149.94654,1870.32921
2152.15877,1870.32921
2152.15877,1873.45286
2154.37101,1870.32921
2154.37101,1873.45286
2156.58324,1873.45286
2156.58324,1870.32921
2158.79548,1870.32921
2158.79548,1873.45286
2161.00771,1873.45286
2161.00771,1870.32921
2163.21995,1873.45286
2163.21995,1870.32921
2165.43218,1870.32921
2165.43218,1873.45286
2167.64442,1870.32921
2167.64442,1873.45286
2169.85666,1873.45286
2169.85666,1870.32921
2172.06889,1870.32921
2172.06889,1873.45286
2174.28113,1873.45286
2174.28113,1870.32921
2176.49336,1870.32921
2176.49336,1873.45286
2178.7056,1873.45286
2178.7056,1870.32921
2180.91783,1870.32921
2180.91783,1873.45286
2183.13007,1870.32921
2183.13007,1873.45286
2185.34231,1873.45286
2185.34231,1870.32921
2187.55454,1870.32921
2187.55454,1873.45286
2189.76678,1870.32921
2189.76678,1873.45286
2191.97901,1870.32921
2191.97901,1873.45286
2194.19125,1873.45286
2194.19125,1870.32921
2196.40348,1870.32921
2196.40348,1873.45286
2198.61572,1873.45286
2198.61572,1870.32921
2200.82795,1873.45286
2200.82795,1870.32921
2203.04019,1873.45286
2203.04019,1870.32921
2205.25243,1873.45286
2205.25243,1870.32921
2207.46466,1873.45286
2207.46466,1870.32921
2209.6769,1870.32921
2209.6769,1873.45286
2211.88913,1873.45286
2211.88913,1870.32921
2214.10137,1873.45286
2214.10137,1870.32921
2216.3136,1870.32921
2216.3136,1873.45286
2218.52584,1873.45286
2218.52584,1870.32921
2220.73808,1870.32921
2220.73808,1873.45286
2222.95031,1870.32921
2222.95031,1873.45286
2225.16255,1870.32921
2225.16255,1873.45286
2227.37478,1870.32921
2227.37478,1873.45286
2229.58702,1870.32921
2229.58702,1873.45286
2231.79925,1870.32921
2231.79925,1873.45286
2234.01149,1870.32921
2234.01149,1873.45286
2236.22373,1873.45286
2236.22373,1870.32921
2238.43596,1870.32921
2238.43596,1873.45286
2240.6482,1873.45286
2240.6482,1870.32921
2242.86043,1870.32921
2242.86043,1873.45286
2245.07267,1873.45286
2245.07267,1870.32921
2247.2849,1873.45286
2247.2849,1870.32921
2249.49714,1870.32921
2249.49714,1873.45286
2251.70937,1870.32921
2251.70937,1873.45286
2253.92161,1870.32921
2253.92161,1873.45286
2256.13385,1870.32921
2256.13385,1873.45286
2258.34608,1873.45286
2258.34608,1870.32921
2260.55832,1870.32921
2260.55832,1873.45286
2262.77055,1873.45286
2262.77055,1870.32921
2264.98279,1873.45286
2264.98279,1870.32921
2267.19502,1870.32921
2267.19502,1873.45286
2269.40726,1873.45286
2269.40726,1870.32921
2271.6195,1873.45286
2271.6195,1870.32921
2273.83173,1873.45286
2273.83173,1870.32921
2276.04397,1870.32921
2276.04397,1873.45286
2278.2562,1873.45286
2278.2562,1870.32921
2280.46844,1870.32921
2280.46844,1873.45286
2282.68067,1873.45286
2282.68067,1870.32921
2284.89291,1870.32921
2284.89291,1873.45286
2287.10514,1870.32921
2287.10514,1873.45286
2289.31738,1873.45286
2289.31738,1870.32921
2291.52962,1873.45286
2291.52962,1870.32921
2293.74185,1870.32921
2293.74185,1873.45286
2295.95409,1873.45286
2295.95409,1870.32921
2298.16632,1870.32921
2298.16632,1873.45286
2300.37856,1870.32921
2300.37856,1873.45286
2302.59079,1873.45286
2302.59079,1870.32921
2304.80303,1870.32921
2304.80303,1873.45286
2307.01527,1873.45286
2307.01527,1870.32921
2309.2275,1870.32921
2309.2275,1873.45286
2311.43974,1873.45286
2311.43974,1870.32921
2313.65197,1871.11013
2313.65197,1873.45286
2315.86421,1873.45286
2315.86421,1871.11013
2318.07644,1873.45286
2318.07644,1871.11013
2320.28868,1873.45286
2320.28868,1871.11013
2322.50092,1871.11013
2322.50092,1873.45286
2324.71315,1871.11013
2324.71315,1873.45286
2326.92539,1873.45286
2326.92539,1871.11013
2329.13762,1871.11013
2329.13762,1873.45286
2331.34986,1871.11013
2331.34986,1872.67195
2333.56209,1872.67195
2333.56209,1867.98647
2333.56209,1868.76739
2333.56209,1871.11013
2333.56209,1870.32921
2333.56209,1869.5483
2335.77433,1864.86282
2335.77433,1865.64374
2335.77433,1866.42465
2335.77433,1867.20556
2335.77433,1872.67195
2337.98656,1871.89104
2340.1988,1871.89104
2342.41104,1871.89104
2344.62327,1871.89104
2346.83551,1871.89104
2349.04774,1871.89104
2351.25998,1871.11013
2353.47221,1870.32921
2355.68445,1870.32921
2357.89669,1870.32921
2360.10892,1870.32921
2362.32116,1870.32921
2364.53339,1870.32921
2366.74563,1871.11013
2368.95786,1871.89104
2371.1701,1872.67195
2373.38234,1873.45286
2375.59457,1873.45286
2377.80681,1873.45286
2380.01904,1873.45286
2382.23128,1873.45286
2384.44351,1873.45286
2386.65575,1873.45286
2388.86798,1873.45286
2391.08022,1873.45286
2393.29246,1873.45286
2395.50469,1873.45286
2397.71693,1873.45286
2399.92916,1873.45286
2402.1414,1873.45286
2404.35363,1873.45286
2406.56587,1873.45286
2408.77811,1873.45286
2410.99034,1873.45286
2413.20258,1873.45286
2415.41481,1873.45286
2417.62705,1873.45286
2419.83928,1873.45286
2422.05152,1873.45286
2424.26375,1873.45286
2426.47599,1873.45286
2428.68823,1873.45286
2430.90046,1873.45286
2433.1127,1873.45286
2435.32493,1873.45286
2437.53717,1873.45286
2439.7494,1873.45286
2441.96164,1873.45286
2444.17388,1873.45286
2446.38611,1873.45286
2448.59835,1873.45286
2450.81058,1873.45286
2453.02282,1873.45286
2455.23505,1873.45286
2457.44729,1873.45286
2459.65953,1873.45286
2461.87176,1873.45286
2464.084,1873.45286
2466.29623,1873.45286
2468.50847,1873.45286
2470.7207,1873.45286
2472.93294,1873.45286
2475.14517,1873.45286
2477.35741,1873.45286
2479.56965,1873.45286
2481.78188,1873.45286
2483.99412,1873.45286
2486.20635,1873.45286
2488.41859,1873.45286
2490.63082,1873.45286
2492.84306,1873.45286
2495.0553,1873.45286
2497.26753,1873.45286
2499.47977,1873.45286
2501.692,1873.45286
2503.90424,1873.45286
2506.11647,1873.45286
2508.32871,1873.45286
2510.54095,1873.45286
2512.75318,1873.45286
2514.96542,1873.45286
2517.17765,1873.45286
2519.38989,1873.45286
2521.60212,1873.45286
2523.81436,1873.45286
2526.02659,1873.45286
2528.23883,1873.45286
2530.45107,1873.45286
2532.6633,1873.45286
2534.87554,1873.45286
2537.08777,1873.45286
2539.30001,1873.45286
2541.51224,1873.45286
2543.72448,1873.45286
2545.93672,1873.45286
2548.14895,1873.45286
2550.36119,1873.45286
2552.57342,1873.45286
2554.78566,1873.45286
2556.99789,1873.45286
2559.21013,1873.45286
2561.42236,1873.45286
2563.6346,1873.45286
2565.84684,1873.45286
2568.05907,1873.45286
2570.27131,1873.45286
2572.48354,1873.45286
2574.69578,1873.45286
2576.90801,1873.45286
2579.12025,1873.45286
2581.33249,1873.45286
2583.54472,1873.45286
2585.75696,1873.45286
2587.96919,1873.45286
2590.18143,1873.45286
2592.39366,1873.45286
2594.6059,1873.45286
2596.81814,1873.45286
2599.03037,1873.45286
2601.24261,1873.45286
2603.45484,1873.45286
2605.66708,1873.45286
2607.87931,1873.45286
2610.09155,1873.45286
2612.30378,1873.45286
2614.51602,1873.45286
2616.72826,1873.45286
2618.94049,1873.45286
2621.15273,1873.45286
2623.36496,1873.45286
2625.5772,1873.45286
2627.78943,1873.45286
2630.00167,1873.45286
2632.21391,1873.45286
2634.42614,1873.45286
2636.63838,1873.45286
2638.85061,1873.45286
2641.06285,1873.45286
2643.27508,1873.45286
2645.48732,1873.45286
2647.69955,1873.45286
2649.91179,1873.45286
2652.12403,1873.45286
2654.33626,1873.45286
2656.5485,1873.45286
2658.76073,1873.45286
2660.97297,1873.45286
2663.1852,1874.23378
2665.39744,1874.23378
2667.60968,1874.23378
2669.82191,1874.23378
2672.03415,1874.23378
2674.24638,1874.23378
2676.45862,1874.23378
2678.67085,1874.23378
2680.88309,1874.23378
2683.09533,1874.23378
2685.30756,1874.23378
2687.5198,1874.23378
2689.73203,1874.23378
2691.94427,1874.23378
2694.1565,1874.23378
2696.36874,1874.23378
2698.58097,1874.23378
2700.79321,1874.23378
2703.00545,1874.23378
2705.21768,1874.23378
2707.42992,1874.23378
2709.64215,1874.23378
2711.85439,1874.23378
2714.06662,1874.23378
2716.27886,1874.23378
2718.4911,1874.23378
2720.70333,1874.23378
2722.91557,1874.23378
2725.1278,1874.23378
2727.34004,1874.23378
2729.55227,1874.23378
2731.76451,1874.23378
2733.97675,1874.23378
2736.18898,1874.23378
2738.40122,1874.23378
2740.61345,1874.23378
2742.82569,1874.23378
2745.03792,1874.23378
2747.25016,1874.23378
2749.46239,1874.23378
2751.67463,1874.23378
2753.88687,1874.23378
2756.0991,1874.23378
2758.31134,1874.23378
2760.52357,1874.23378
2762.73581,1874.23378
2764.94804,1874.23378
2767.16028,1874.23378
2769.37252,1874.23378
2771.58475,1874.23378
2773.79699,1874.23378
2776.00922,1874.23378
2778.22146,1874.23378
2780.43369,1874.23378
2782.64593,1874.23378
2784.85816,1874.23378
2787.0704,1874.23378
2789.28264,1874.23378
2791.49487,1874.23378
2793.70711,1874.23378
2795.91934,1874.23378
2798.13158,1874.23378
2800.34381,1874.23378
2802.55605,1874.23378
2804.76829,1874.23378
2806.98052,1874.23378
2809.19276,1874.23378
2811.40499,1874.23378
2813.61723,1874.23378
2815.82946,1874.23378
2818.0417,1874.23378
2820.25394,1874.23378
2822.46617,1874.23378
2824.67841,1874.23378
2826.89064,1874.23378
2829.10288,1874.23378
2831.31511,1874.23378
2833.52735,1874.23378
2835.73958,1874.23378
2837.95182,1874.23378
2840.16406,1874.23378
2842.37629,1874.23378
2844.58853,1874.23378
2846.80076,1874.23378
2849.013,1874.23378
2851.22523,1874.23378
2853.43747,1874.23378
2855.64971,1874.23378
2857.86194,1874.23378
2860.07418,1874.23378
2862.28641,1874.23378
2864.49865,1874.23378
2866.71088,1874.23378
2868.92312,1874.23378
2871.13536,1874.23378
2873.34759,1874.23378
2875.55983,1874.23378
2877.77206,1874.23378
2879.9843,1874.23378
2882.19653,1874.23378
2884.40877,1874.23378
2886.621,1874.23378
2888.83324,1874.23378
2891.04548,1874.23378
2893.25771,1874.23378
2895.46995,1874.23378
2897.68218,1874.23378
2899.89442,1874.23378
2902.10665,1874.23378
2904.31889,1874.23378
2906.53113,1874.23378
2908.74336,1874.23378
2910.9556,1874.23378
2913.16783,1874.23378
2915.38007,1874.23378
2917.5923,1874.23378
2919.80454,1874.23378
2922.01677,1874.23378
2924.22901,1874.23378
2926.44125,1874.23378
2928.65348,1874.23378
2930.86572,1874.23378
2933.07795,1874.23378
2935.29019,1874.23378
2937.50242,1874.23378
2939.71466,1874.23378
2941.9269,1874.23378
2944.13913,1874.23378
2946.35137,1874.23378
2948.5636,1874.23378
2950.77584,1874.23378
2952.98807,1874.23378
2955.20031,1874.23378
2957.41255,1874.23378
2959.62478,1874.23378
2961.83702,1874.23378
2964.04925,1874.23378
2966.26149,1874.23378
2968.47372,1874.23378
2970.68596,1874.23378
2972.89819,1874.23378
2975.11043,1874.23378
2977.32267,1874.23378
2979.5349,1874.23378
2981.74714,1874.23378
2983.95937,1874.23378
2986.17161,1874.23378
2988.38384,1874.23378
2990.59608,1874.23378
2992.80832,1874.23378
2995.02055,1874.23378
2997.23279,1874.23378
2999.44502,1874.23378
3001.65726,1874.23378
3003.86949,1874.23378
3006.08173,1874.23378
3008.29396,1874.23378
3010.5062,1874.23378
3012.71844,1874.23378
3014.93067,1874.23378
3017.14291,1874.23378
3019.35514,1874.23378
3021.56738,1874.23378
3023.77961,1874.23378
3025.99185,1874.23378
3028.20409,1874.23378
3030.41632,1874.23378
3032.62856,1874.23378
3034.84079,1874.23378
3037.05303,1874.23378
3039.26526,1874.23378
3041.4775,1874.23378
3043.68974,1874.23378
3045.90197,1874.23378
3048.11421,1874.23378
3050.32644,1874.23378
3052.53868,1874.23378
3054.75091,1874.23378
3056.96315,1874.23378
3059.17538,1874.23378
3061.38762,1874.23378
3063.59986,1874.23378
3065.81209,1874.23378
3068.02433,1874.23378
3070.23656,1874.23378
3072.4488,1874.23378
3074.66103,1874.23378
3076.87327,1874.23378
3079.08551,1874.23378
3081.29774,1874.23378
3083.50998,1874.23378
3085.72221,1874.23378
3087.93445,1874.23378
3090.14668,1874.23378
3092.35892,1874.23378
3094.57116,1874.23378
3096.78339,1873.45286
3098.99563,1872.67195
3101.20786,1871.89104
3103.4201,1871.11013
3105.63233,1871.11013
3107.84457,1871.11013
3110.0568,1871.11013
3112.26904,1871.11013
3114.48128,1871.11013
3116.69351,1871.11013
3118.90575,1871.11013
3121.11798,1871.11013
3123.33022,1871.11013
3125.54245,1871.11013
3127.75469,1871.11013
3129.96693,1871.11013
3132.17916,1871.11013
3134.3914,1871.11013
3136.60363,1871.11013
3138.81587,1871.11013
3141.0281,1871.11013
3143.24034,1871.11013
3145.45257,1871.11013
3147.66481,1871.11013
3149.87705,1871.11013
3152.08928,1871.11013
3154.30152,1871.11013
3156.51375,1871.11013
3158.72599,1871.11013
3160.93822,1871.11013
3163.15046,1871.11013
3165.3627,1871.11013
3167.57493,1871.11013
3169.78717,1871.11013
3171.9994,1871.11013
3174.21164,1871.11013
3176.42387,1871.11013
3178.63611,1871.11013
3180.84835,1871.11013
3183.06058,1871.11013
3185.27282,1871.11013
3187.48505,1871.11013
3189.69729,1871.11013
3191.90952,1871.11013
3194.12176,1871.11013
3196.33399,1871.11013
3198.54623,1871.11013
3200.75847,1871.11013
3202.9707,1871.11013
3205.18294,1871.11013
3207.39517,1871.11013
3209.60741,1871.11013
3211.81964,1871.11013
3214.03188,1871.11013
3216.24412,1871.11013
3218.45635,1871.11013
3220.66859,1871.11013
3222.88082,1871.11013
3225.09306,1871.11013
3227.30529,1871.11013
3229.51753,1871.11013
3231.72976,1871.11013
3233.942,1871.11013
3236.15424,1871.11013
3238.36647,1871.11013
3240.57871,1871.11013
3242.79094,1871.11013
3245.00318,1871.11013
3247.21541,1871.11013
3249.42765,1871.11013
3251.63989,1871.11013
3253.85212,1871.11013
3256.06436,1871.11013
3258.27659,1871.11013
3260.48883,1871.11013
3262.70106,1871.11013
3264.9133,1871.11013
3267.12554,1871.11013
3269.33777,1871.11013
3271.55001,1871.11013
3273.76224,1871.11013
3275.97448,1871.11013
3278.18671,1871.11013
3280.39895,1871.11013
3282.61118,1871.11013
3284.82342,1871.11013
3287.03566,1871.11013
3289.24789,1871.11013
3291.46013,1871.11013
3293.67236,1871.11013
3295.8846,1871.11013
3298.09683,1871.11013
3300.30907,1871.11013
3302.52131,1871.11013
3304.73354,1871.11013
3306.94578,1871.11013
3309.15801,1871.11013
3311.37025,1871.11013
3313.58248,1871.11013
3315.79472,1871.11013
3318.00696,1871.11013
3320.21919,1871.11013
3322.43143,1871.11013
3324.64366,1871.11013
3326.8559,1871.11013
3329.06813,1871.11013
3331.28037,1871.11013
3333.4926,1871.11013
3335.70484,1871.11013
3337.91708,1871.11013
3340.12931,1871.11013
3342.34155,1871.11013
3344.55378,1871.11013
3346.76602,1871.11013
3348.97825,1871.11013
3351.19049,1871.11013
3353.40273,1871.11013
3355.61496,1871.11013
3357.8272,1871.11013
3360.03943,1871.11013
3362.25167,1871.11013
3364.4639,1871.11013
3366.67614,1871.11013
3368.88837,1871.11013
3371.10061,1871.11013
3373.31285,1871.11013
3375.52508,1871.11013
3377.73732,1871.11013
3379.94955,1871.11013
3382.16179,1871.11013
3384.37402,1871.11013
3386.58626,1871.11013
3388.7985,1871.11013
3391.01073,1871.11013
3393.22297,1871.11013
3395.4352,1871.11013
3397.64744,1871.11013
3399.85967,1871.11013
3402.07191,1871.11013
3404.28415,1871.11013
3406.49638,1871.11013
3408.70862,1871.11013
3410.92085,1871.11013
3413.13309,1871.11013
3415.34532,1871.11013
3417.55756,1871.11013
3419.76979,1871.11013
3421.98203,1871.11013
3424.19427,1871.11013
3426.4065,1871.11013
3428.61874,1871.11013
3430.83097,1871.11013
3433.04321,1871.11013
3435.25544,1871.11013
3437.46768,1871.11013
3439.67992,1871.11013
3441.89215,1871.11013
3444.10439,1871.11013
3446.31662,1871.11013
3448.52886,1871.11013
3450.74109,1871.11013
3452.95333,1871.11013
3455.16557,1871.11013
3457.3778,1871.11013
3459.59004,1871.11013
3461.80227,1871.11013
3464.01451,1871.11013
3466.22674,1871.11013
3468.43898,1871.11013
3470.65121,1871.11013
3472.86345,1871.11013
3475.07569,1871.11013
3477.28792,1871.11013
3479.50016,1871.11013
3481.71239,1871.11013
3483.92463,1871.11013
3486.13686,1871.11013
3488.3491,1871.11013
3490.56134,1871.11013
3492.77357,1871.11013
3494.98581,1871.11013
3497.19804,1871.11013
3499.41028,1871.11013
3501.62251,1871.11013
3503.83475,1871.11013
3506.04698,1871.11013
3508.25922,1871.11013
3510.47146,1871.11013
3512.68369,1871.11013
3514.89593,1871.11013
3517.10816,1871.11013
3519.3204,1871.11013
3521.53263,1871.11013
3523.74487,1871.11013
3525.95711,1871.11013
3528.16934,1871.11013
3530.38158,1871.11013
3532.59381,1871.11013
3534.80605,1871.11013
3537.01828,1871.11013
3539.23052,1871.11013
3541.44276,1871.11013
3543.65499,1871.11013
3545.86723,1871.11013
3548.07946,1871.11013
3550.2917,1871.11013
3552.50393,1871.11013
3554.71617,1871.11013
3556.9284,1871.11013
3559.14064,1871.11013
3561.35288,1871.11013
3563.56511,1871.11013
3565.77735,1871.11013
3567.98958,1871.11013
3570.20182,1871.11013
3572.41405,1871.11013
3574.62629,1871.11013
3576.83853,1871.11013
3579.05076,1871.11013
3581.263,1871.11013
3583.47523,1871.11013
3585.68747,1871.11013
3587.8997,1871.11013
3590.11194,1871.11013
3592.32417,1871.11013
3594.53641,1871.11013
3596.74865,1871.11013
3598.96088,1871.11013
3601.17312,1871.11013
3603.38535,1871.11013
3605.59759,1871.11013
3607.80982,1871.11013
3610.02206,1871.11013
3612.2343,1871.11013
3614.44653,1871.11013
3616.65877,1871.11013
3618.871,1871.11013
3621.08324,1871.11013
3623.29547,1871.11013
3625.50771,1871.11013
3627.71995,1871.11013
3629.93218,1871.11013
3632.14442,1871.11013
3634.35665,1871.11013
3636.56889,1871.11013
3638.78112,1871.11013
3640.99336,1871.11013
3643.20559,1871.11013
3645.41783,1871.11013
3647.63007,1871.11013
3649.8423,1871.11013
3652.05454,1871.11013
3654.26677,1871.11013
3656.47901,1871.11013
3658.69124,1871.11013
3660.90348,1871.11013
3663.11572,1871.11013
3665.32795,1871.11013
3667.54019,1871.11013
3669.75242,1871.11013
3671.96466,1871.11013
3674.17689,1871.11013
3676.38913,1871.11013
3678.60137,1871.11013
3680.8136,1871.11013
3683.02584,1871.11013
3685.23807,1871.11013
3687.45031,1871.11013
3689.66254,1871.11013
3691.87478,1871.11013
3694.08701,1871.11013
3696.29925,1871.11013
3698.51149,1871.11013
3700.72372,1871.11013
3702.93596,1871.11013
3705.14819,1871.11013
3707.36043,1871.11013
3709.57266,1871.11013
3711.7849,1871.11013
3713.99714,1871.11013
3716.20937,1871.11013
3718.42161,1871.11013
3720.63384,1871.11013
3722.84608,1871.11013
3725.05831,1871.11013
3727.27055,1871.11013
3729.48278,1871.11013
3731.69502,1871.11013
3733.90726,1871.11013
3736.11949,1871.11013
3738.33173,1871.11013
3740.54396,1871.11013
3742.7562,1871.11013
3744.96843,1871.11013
3747.18067,1871.11013
3749.39291,1871.11013
3751.60514,1871.11013
3753.81738,1871.11013
3756.02961,1871.11013
3758.24185,1871.11013
3760.45408,1871.11013
3762.66632,1871.11013
3764.87856,1871.11013
3767.09079,1871.11013
3769.30303,1871.11013
3771.51526,1871.11013
3773.7275,1871.11013
3775.93973,1871.11013
3778.15197,1871.11013
3780.3642,1871.11013
3782.57644,1871.11013
3784.78868,1871.11013
3787.00091,1871.11013
3789.21315,1871.11013
3791.42538,1871.11013
3793.63762,1871.11013
3795.84985,1871.11013
3798.06209,1871.11013
3800.27433,1871.11013
3802.48656,1871.11013
3804.6988,1871.11013
3806.91103,1871.11013
3809.12327,1871.11013
3811.3355,1871.11013
3813.54774,1871.11013
3815.75998,1871.11013
3817.97221,1871.11013
3820.18445,1871.11013
3822.39668,1871.11013
3824.60892,1871.11013
3826.82115,1871.11013
3829.03339,1871.11013
3831.24562,1871.11013
3833.45786,1871.11013
3835.6701,1871.11013
3837.88233,1871.11013
3840.09457,1871.11013
3842.3068,1871.11013
3844.51904,1871.11013
3846.73127,1871.11013
3848.94351,1871.11013
3851.15575,1871.11013
3853.36798,1871.11013
3855.58022,1871.11013
3857.79245,1871.11013
3860.00469,1871.11013
3862.21692,1871.11013
3864.42916,1871.11013
3866.64139,1871.11013
3868.85363,1871.11013
3871.06587,1871.11013
3873.2781,1871.11013
3875.49034,1871.11013
3877.70257,1871.11013
3879.91481,1871.11013
3882.12704,1871.11013
3884.33928,1871.11013
3886.55152,1871.11013
3888.76375,1871.11013
3890.97599,1871.11013
3893.18822,1871.11013
3895.40046,1871.11013
3897.61269,1871.11013
3899.82493,1871.11013
3902.03717,1871.11013
3904.2494,1871.11013
3906.46164,1871.11013
3908.67387,1871.11013
3910.88611,1871.11013
3913.09834,1871.11013
3915.31058,1871.11013
3917.52281,1871.11013
3919.73505,1871.11013
3921.94729,1871.11013
3924.15952,1871.11013
3926.37176,1871.11013
3928.58399,1871.11013
3930.79623,1871.11013
3933.00846,1871.11013
3935.2207,1871.11013
3937.43294,1871.11013
3939.64517,1871.11013
3941.85741,1871.11013
3944.06964,1871.11013
3946.28188,1871.11013
3948.49411,1871.11013
3950.70635,1871.11013
3952.91858,1871.11013
3955.13082,1871.11013
3957.34306,1871.11013
3959.55529,1871.11013
3961.76753,1871.11013
3963.97976,1871.11013
3966.192,1871.11013
3968.40423,1871.11013
3970.61647,1871.11013
3972.82871,1871.11013
3975.04094,1871.11013
3977.25318,1871.11013
3979.46541,1871.11013
3981.67765,1871.89104
3983.88988,1872.67195
3986.10212,1872.67195
3988.31436,1872.67195
3990.52659,1872.67195
3992.73883,1872.67195
3994.95106,1872.67195
3997.1633,1872.67195
3999.37553,1872.67195
4001.58777,1872.67195
