Wavenumber (cm⁻¹),Intensity
200.0,474.83182586600316
201.00097751710655,464.4213165454601
202.0019550342131,454.401549027481
203.00293255131965,448.1284886451686
204.0039100684262,446.1338815803707
205.00488758553274,441.1099767875272
206.0058651026393,436.08147327083793
207.00684261974584,433.1539625517272
208.0078201368524,431.941112460109
209.00879765395894,430.52843274591066
210.00977517106548,428.9829667990704
211.01075268817203,427.1125246497737
212.01173020527858,425.8596783206536
213.01270772238513,426.1801947473206
214.01368523949168,428.06705783460393
215.01466275659823,429.5599052830937
216.01564027370478,429.72126143428386
217.01661779081132,429.3651354787411
218.01759530791787,430.0804564484802
219.01857282502445,430.372384057286
220.019550342131,430.5131598299068
221.02052785923755,431.84554804920265
222.0215053763441,434.47145851014716
223.02248289345064,434.391842862574
224.0234604105572,435.14510463394197
225.02443792766374,436.59050881813295
226.0254154447703,439.0250326363379
227.02639296187684,443.13425698448344
228.02737047898339,445.81062886268796
229.02834799608993,448.0740517908069
230.02932551319648,451.2489450156967
231.03030303030303,455.5008275254097
232.03128054740958,458.82757909378626
233.03225806451613,463.8327643856515
234.03323558162268,464.6271713824923
235.03421309872923,460.995402679585
236.03519061583577,457.07398993571013
237.03616813294232,453.18046528390886
238.03714565004887,447.8478870614936
239.03812316715542,443.5299339408295
240.03910068426197,441.2724587714875
241.04007820136852,437.7743672485945
242.04105571847506,436.5841610477986
243.0420332355816,435.5157895027113
244.0430107526882,434.2871848436388
245.04398826979474,433.8768461381991
246.0449657869013,430.6673025783053
247.04594330400784,432.4570398087051
248.04692082111438,432.99334553648157
249.04789833822093,429.7884404843951
250.04887585532748,430.5355194039173
251.04985337243403,429.53612602087276
252.05083088954058,429.0744385073004
253.05180840664713,429.4663905527898
254.05278592375367,429.8164910243613
255.05376344086022,430.96275857170576
256.05474095796677,430.1138798279553
257.0557184750733,430.00502692715946
258.05669599217987,431.04670379021564
259.0576735092864,430.79926112239485
260.05865102639297,432.6761758017982
261.0596285434995,431.1300097723932
262.06060606060606,429.71797229293554
263.0615835777126,431.82817352777835
264.06256109481916,432.86299759828046
265.0635386119257,433.1700178155686
266.06451612903226,434.868090388823
267.0654936461388,437.7962523655975
268.06647116324535,440.0043349702943
269.0674486803519,439.53662992169524
270.06842619745845,441.94858627134903
271.069403714565,445.7509124212395
272.07038123167155,448.6643835072121
273.0713587487781,450.1713966011109
274.07233626588464,451.93922391050234
275.0733137829912,454.2814337642438
276.07429130009774,457.88920452277017
277.0752688172043,462.40138403713144
278.07624633431084,465.134874572207
279.0772238514174,468.152632604189
280.07820136852393,471.35087535616725
281.0791788856305,474.2271713066794
282.08015640273703,476.7273170131358
283.0811339198436,479.8357664214458
284.08211143695013,484.437974351338
285.0830889540567,489.0844613588562
286.0840664711632,493.19169063159023
287.0850439882698,498.1361793418455
288.0860215053764,503.42302633795265
289.0869990224829,508.98638891476156
290.0879765395895,514.2853983099213
291.088954056696,519.499803969478
292.0899315738026,526.050775266506
293.0909090909091,530.650636676596
294.09188660801567,536.9857496835391
295.0928641251222,545.109957493335
296.09384164222877,552.0406465671148
297.0948191593353,556.9917191403572
298.09579667644186,567.1514746753527
299.0967741935484,576.2667304293716
300.09775171065496,582.339994450436
301.0987292277615,590.5665967724094
302.09970674486806,599.4656419922371
303.1006842619746,610.7315322609034
304.10166177908116,622.4217722614061
305.1026392961877,632.2034068611727
306.10361681329425,640.4062493631744
307.1045943304008,648.727901607013
308.10557184750735,652.3420202223776
309.1065493646139,650.5737753183317
310.10752688172045,644.5267152520446
311.108504398827,631.5001024500577
312.10948191593354,618.6423929633972
313.1104594330401,604.7195678418764
314.11143695014664,589.7447061499629
315.1124144672532,575.6009512478496
316.11339198435974,562.1321435573877
317.1143695014663,550.8540709515008
318.11534701857283,541.9830559900956
319.1163245356794,535.2174081814248
320.11730205278593,530.4455553592209
321.1182795698925,528.4080551139393
322.119257086999,527.8271461370235
323.1202346041056,528.4602698078604
324.1212121212121,530.2480309906784
325.1221896383187,532.7367536313006
326.1231671554252,535.0783363070657
327.12414467253177,538.8538004562558
328.1251221896383,542.8784326568372
329.12609970674487,545.8300693149655
330.1270772238514,549.7546627362003
331.12805474095796,554.7175075089981
332.1290322580645,561.3400765762693
333.13000977517106,569.034563253812
334.1309872922776,576.868667883808
335.13196480938416,585.5426954623008
336.1329423264907,594.719530909898
337.13391984359725,603.7047697246871
338.1348973607038,612.4475285730621
339.13587487781035,621.2785092303195
340.1368523949169,629.209632927464
341.13782991202345,631.677155266822
342.13880742913,629.9028321760845
343.13978494623655,622.842576956996
344.1407624633431,607.1004341369415
345.14173998044964,592.5658735882865
346.1427174975562,580.083033636382
347.14369501466274,567.3030325861138
348.1446725317693,553.734797504554
349.14565004887584,542.4207983256293
350.1466275659824,537.7295121939023
351.14760508308893,534.7658207223895
352.1485826001955,531.6915000977112
353.14956011730203,529.86679573968
354.1505376344086,532.2980669231608
355.1515151515151,537.7827720176247
356.1524926686217,543.3975221582505
357.1534701857282,549.573133446515
358.1544477028348,557.9654564500614
359.1554252199413,568.8132666838198
360.15640273704787,582.0056366189543
361.1573802541544,595.1698321583659
362.15835777126097,609.3204634418329
363.1593352883675,625.7625093499782
364.16031280547406,641.5134746856521
365.1612903225806,662.3639184129188
366.16226783968716,680.6588767858441
367.1632453567937,699.2557702331743
368.16422287390026,724.6295617819588
369.1652003910068,750.3294900817582
370.16617790811335,777.136094414405
371.1671554252199,807.9129757128544
372.16813294232645,840.2909341697261
373.169110459433,868.5290861491223
374.17008797653955,889.2803616079033
375.1710654936461,905.0753986560703
376.1720430107527,909.4683817322511
377.17302052785925,899.5948037027031
378.1739980449658,877.106807300639
379.17497556207235,842.5560279010266
380.1759530791789,799.9518189678454
381.17693059628544,755.0041768980116
382.177908113392,710.6905425661755
383.17888563049854,668.0629228591176
384.1798631476051,631.9907826007624
385.18084066471164,601.0767761572399
386.1818181818182,574.5812519073754
387.18279569892474,551.7723682845877
388.1837732160313,531.9136735996368
389.18475073313783,516.278816570223
390.1857282502444,503.3738707729079
391.18670576735093,492.85622643101266
392.1876832844575,483.8595586294931
393.188660801564,475.5405035583976
394.1896383186706,469.305440231539
395.1906158357771,464.2587800578603
396.1915933528837,460.0087979043907
397.1925708699902,456.23428546149063
398.19354838709677,452.6451520531813
399.1945259042033,449.6288020570034
400.19550342130987,447.31106560027695
401.1964809384164,445.44390976592507
402.19745845552296,443.46062094335974
403.1984359726295,440.75385826492646
404.19941348973606,438.9529343508757
405.2003910068426,438.43440151307317
406.20136852394916,435.9331610032721
407.2023460410557,432.8591755373151
408.20332355816225,433.1703909577336
409.20430107526886,430.9944202646128
410.2052785923754,428.3894723462417
411.20625610948196,427.0557645968892
412.2072336265885,427.26647819857044
413.20821114369505,428.09269987025243
414.2091886608016,427.620097015582
415.21016617790815,427.4515445047054
416.2111436950147,426.8384365456966
417.21212121212125,426.7244668765633
418.2130987292278,427.7916161228682
419.21407624633434,426.2056295623801
420.2150537634409,428.37319752545466
421.21603128054744,428.81480229924347
422.217008797654,427.0364375400024
423.21798631476054,426.08059171312
424.2189638318671,425.49984023530163
425.21994134897363,425.30646558495
426.2209188660802,425.80970544717457
427.22189638318673,425.5250044354864
428.2228739002933,424.2750694992764
429.2238514173998,427.24979515969864
430.2248289345064,426.02828740643275
431.2258064516129,427.9391786324615
432.2267839687195,429.3748730118495
433.227761485826,426.10771637210365
434.22873900293257,424.57215025520674
435.2297165200391,424.6348234501508
436.23069403714567,425.0007256221812
437.2316715542522,426.14524030132105
438.23264907135876,427.59052506178676
439.2336265884653,427.26527958625536
440.23460410557186,426.91765766687894
441.2355816226784,428.6049077211685
442.23655913978496,428.7249358670512
443.2375366568915,426.9304367265259
444.23851417399806,427.2037916343717
445.2394916911046,428.964441077191
446.24046920821115,432.0699693624407
447.2414467253177,435.1102547696894
448.24242424242425,436.1450397691916
449.2434017595308,434.4418664123744
450.24437927663735,434.41514639913396
451.2453567937439,434.4855698580238
452.24633431085044,434.44415463023216
453.247311827957,434.3265938742464
454.24828934506354,434.2858577430162
455.2492668621701,435.3268800307307
456.25024437927664,431.93091191806445
457.2512218963832,429.52016257376744
458.25219941348973,429.7878916404951
459.2531769305963,430.441303198616
460.25415444770283,429.71055043321184
461.2551319648094,429.85761652630447
462.2561094819159,429.01659096440454
463.2570869990225,429.7489359994346
464.258064516129,431.8800236880315
465.2590420332356,430.11790632257504
466.2600195503421,430.5938034694253
467.26099706744867,431.4581064331818
468.2619745845552,431.99442029377013
469.26295210166177,432.5256863357623
470.2639296187683,433.60878887808167
471.26490713587486,434.54627782859
472.2658846529814,434.204440496616
473.26686217008796,434.4848985967429
474.2678396871945,435.7004837696677
475.26881720430106,436.3399312635189
476.2697947214076,436.33635912731506
477.27077223851416,436.8026637186243
478.2717497556207,439.1233968128928
479.27272727272725,441.34895822066335
480.2737047898338,442.2104428515639
481.27468230694035,444.1365337107753
482.2756598240469,446.67981867811943
483.27663734115345,449.5204608417109
484.27761485826,451.6015199505544
485.27859237536654,453.2972774095005
486.2795698924731,456.38959111481347
487.28054740957964,457.6244942966408
488.2815249266862,459.52528352746805
489.2825024437928,462.96481547597557
490.28347996089934,466.91661207066363
491.2844574780059,470.04374243306273
492.28543499511244,473.04315680955943
493.286412512219,474.6034557230981
494.28739002932554,477.451205106873
495.2883675464321,480.3323838548718
496.28934506353863,481.6067066389044
497.2903225806452,483.2756017898843
498.29130009775173,481.7264903189722
499.2922776148583,479.2158264675986
500.2932551319648,477.2449282486628
501.2942326490714,475.1724800739969
502.2952101661779,471.92480793502193
503.2961876832845,470.0434130787774
504.297165200391,470.7938702184879
505.29814271749757,471.27055672156047
506.2991202346041,470.64333655031965
507.30009775171067,470.23227129254695
508.3010752688172,472.3098154248997
509.30205278592376,475.28932805620093
510.3030303030303,477.9953158687057
511.30400782013686,479.54495361185576
512.3049853372434,480.8323554858052
513.3059628543499,483.9116617336217
514.3069403714564,485.7329643480593
515.307917888563,488.2487931955805
516.3088954056695,490.78479266872296
517.3098729227761,492.89632174309475
518.3108504398826,495.50666261401557
519.3118279569892,500.68442580845874
520.3128054740957,500.6500092511928
521.3137829912023,502.51972737988496
522.3147605083088,504.51621575211743
523.3157380254154,503.26662457160893
524.3167155425219,501.57277723088606
525.3176930596285,497.67845589327675
526.318670576735,492.78065925312944
527.3196480938416,488.5834199741899
528.3206256109481,484.85175666872095
529.3216031280547,480.287917969425
530.3225806451612,475.6812228428844
531.3235581622678,472.95780995277073
532.3245356793743,471.7972464345363
533.3255131964809,470.6805095409482
534.3264907135874,469.3672199530483
535.327468230694,470.12776860545966
536.3284457478005,469.1623719852236
537.3294232649071,468.71618437973893
538.3304007820136,469.45685601933206
539.3313782991202,470.26241072142227
540.3323558162267,470.2576078153313
541.3333333333333,471.8222667496197
542.3343108504398,471.8234932646213
543.3352883675464,473.1827647760295
544.3362658846529,476.2178544381138
545.3372434017595,478.4482506948765
546.338220918866,478.0361205221616
547.3391984359725,481.76796714952445
548.3401759530791,485.348815707185
549.3411534701856,486.8555480884279
550.3421309872922,487.32044405485686
551.3431085043987,488.3610479628166
552.3440860215054,488.79936347208564
553.345063538612,489.7854411920964
554.3460410557185,488.7982190690045
555.347018572825,485.58673469368574
556.3479960899316,481.858102147557
557.3489736070381,479.4650575064129
558.3499511241447,480.35251261945996
559.3509286412512,476.48255903372007
560.3519061583578,475.3789357395339
561.3528836754643,476.1150096655197
562.3538611925709,474.51200372551415
563.3548387096774,473.6886118038688
564.355816226784,472.1061863627646
565.3567937438905,471.2640827539907
566.3577712609971,470.08632891169555
567.3587487781036,468.70871614397277
568.3597262952102,468.7422320909478
569.3607038123167,469.39656994271763
570.3616813294233,468.69817669244054
571.3626588465298,468.1589422372347
572.3636363636364,466.86227252927523
573.3646138807429,465.643276539853
574.3655913978495,467.9426395784125
575.366568914956,468.4970976906995
576.3675464320626,468.20883002800355
577.3685239491691,465.2646899341084
578.3695014662757,464.10360936482067
579.3704789833822,467.5628337449814
580.3714565004888,468.0090027464358
581.3724340175953,468.526820603591
582.3734115347019,468.278838935656
583.3743890518084,467.19823310465796
584.375366568915,466.59600342185735
585.3763440860215,467.94112698119574
586.377321603128,472.7319945467684
587.3782991202346,469.75981940616737
588.3792766373411,467.5861323666437
589.3802541544477,467.90958776487605
590.3812316715542,469.1334900295688
591.3822091886608,469.979337309705
592.3831867057673,470.6641060714741
593.3841642228739,471.8112808605718
594.3851417399804,471.17684092753217
595.386119257087,469.6790057945008
596.3870967741935,469.66317025394363
597.3880742913001,471.3733184592781
598.3890518084066,471.58524276916137
599.3900293255132,473.74357554723014
600.3910068426197,474.3815618121719
601.3919843597263,474.6575949213718
602.3929618768328,476.5571069934141
603.3939393939394,476.92576043949134
604.3949169110459,475.6634056577579
605.3958944281525,478.35970167662106
606.396871945259,480.85146892197156
607.3978494623656,480.86778050018626
608.3988269794721,481.75289335422184
609.3998044965787,486.1351841031102
610.4007820136852,485.37763758231904
611.4017595307918,483.33415520173537
612.4027370478983,485.87992416263717
613.4037145650049,490.05112166694437
614.4046920821114,489.6963181876577
615.405669599218,490.1550732352734
616.4066471163245,491.50020891924555
617.4076246334312,492.3210707885406
618.4086021505377,493.28132654069464
619.4095796676443,494.91062672276763
620.4105571847508,496.70586336409457
621.4115347018574,498.49220369291015
622.4125122189639,498.9196643715085
623.4134897360705,502.0219891330151
624.414467253177,505.28362968235473
625.4154447702836,507.0880615077042
626.4164222873901,509.17198635241374
627.4173998044967,512.9447595459586
628.4183773216032,514.79279326819
629.4193548387098,517.3066127232339
630.4203323558163,520.6049500091955
631.4213098729228,524.0892513726301
632.4222873900294,528.1447739607572
633.423264907136,531.9800833869742
634.4242424242425,535.5835467581857
635.425219941349,539.8879833216849
636.4261974584556,544.1633364334881
637.4271749755621,548.7258762017877
638.4281524926687,555.1274110865163
639.4291300097752,562.5236993391728
640.4301075268818,571.264645028583
641.4310850439883,581.0553193559952
642.4320625610949,592.4196799727995
643.4330400782014,605.8228093110082
644.434017595308,621.2187709031433
645.4349951124145,639.4789474806136
646.4359726295211,660.3692663723783
647.4369501466276,682.9154514627786
648.4379276637342,709.5776829428952
649.4389051808407,739.3846168623434
650.4398826979473,768.3868429887333
651.4408602150538,801.7774176975612
652.4418377321604,839.7849728384891
653.4428152492669,881.8100540149688
654.4437927663735,927.529713257961
655.44477028348,975.65532450251
656.4457478005866,1024.5982697728255
657.4467253176931,1073.9483423505824
658.4477028347997,1119.0394454499458
659.4486803519062,1156.1468321584293
660.4496578690128,1176.6205919927543
661.4506353861193,1172.236329432592
662.4516129032259,1142.159691310192
663.4525904203324,1093.825532741348
664.453567937439,1028.7913543948632
665.4545454545455,957.2592964612953
666.455522971652,889.5473635564135
667.4565004887586,829.8734440357155
668.4574780058651,778.5866423197191
669.4584555229717,737.7892575794872
670.4594330400782,703.3156897202945
671.4604105571848,675.6606274755478
672.4613880742913,653.1546381236527
673.4623655913979,634.9914300187568
674.4633431085044,620.8736510216485
675.464320625611,608.7638001414462
676.4652981427175,598.6676605076999
677.4662756598241,588.8644324827801
678.4672531769306,581.8305566592924
679.4682306940372,576.6998870721786
680.4692082111437,571.9804948758517
681.4701857282503,568.7253450177144
682.4711632453568,564.9790838824035
683.4721407624634,561.3110626434568
684.4731182795699,559.9255846272914
685.4740957966765,557.6361049008258
686.475073313783,553.2026247490055
687.4760508308896,551.2841400163588
688.4770283479961,553.6401225366661
689.4780058651027,552.9520118653057
690.4789833822092,553.1989477164808
691.4799608993158,552.5432937304703
692.4809384164223,551.0525975643584
693.4819159335289,551.3714107456724
694.4828934506354,548.8037642988534
695.483870967742,550.5169697425912
696.4848484848485,551.0200969703254
697.485826001955,550.8885725092268
698.4868035190616,550.9489756775253
699.4877810361681,551.3708961015499
700.4887585532747,553.7533685021162
701.4897360703812,555.4479893712808
702.4907135874878,555.0426347195381
703.4916911045943,555.092005805665
704.4926686217009,555.302304580644
705.4936461388074,554.8611041585131
706.494623655914,554.6686844495296
707.4956011730205,551.4671056748913
708.4965786901271,550.5177653027657
709.4975562072336,549.392140187916
710.4985337243402,547.2697245412755
711.4995112414467,546.3537645416568
712.5004887585533,547.5356412142988
713.5014662756598,547.3165859309923
714.5024437927664,545.741001566643
715.5034213098729,547.2759727026169
716.5043988269795,547.5817281825421
717.505376344086,545.7291410274593
718.5063538611926,544.943758151562
719.5073313782991,547.1612660064928
720.5083088954057,546.8540678844884
721.5092864125122,546.7716262770224
722.5102639296188,548.6389949840659
723.5112414467253,549.3253510962302
724.5122189638319,549.257455641324
725.5131964809384,551.8760691765194
726.514173998045,550.5237747860997
727.5151515151515,551.4594913453137
728.516129032258,552.0452627295904
729.5171065493646,552.8776447387199
730.5180840664711,553.6883514854671
731.5190615835777,553.6038473164509
732.5200391006842,554.3640669075078
733.5210166177908,555.1080209831823
734.5219941348973,553.4924622115124
735.5229716520039,554.0952439105915
736.5239491691104,555.3858497578511
737.524926686217,556.2478388498266
738.5259042033235,558.9225556201759
739.5268817204301,559.6755689902823
740.5278592375366,557.9950042673154
741.5288367546432,558.8970778338212
742.5298142717497,559.9615603558722
743.5307917888563,561.0447081644879
744.5317693059628,563.6037117512113
745.5327468230694,565.5691399176948
746.5337243401759,564.9852040727311
747.5347018572825,566.5697927793502
748.535679374389,568.3765435248971
749.5366568914956,569.7075859643787
