Raman Shift,Intensity
90.71747,274.6927
91.19958,273.5023
91.6817,276.215
92.16382,277.1776
92.64594,275.6423
93.12805,272.5879
93.61017,268.9966
94.09229,264.6476
94.5744,257.8431
95.05651,253.1944
95.53863,252.9248
96.02074,253.645
96.50286,251.9993
96.98498,246.3795
97.46709,237.747
97.94921,231.3105
98.43133,227.9324
98.91344,225.0462
99.39556,222.1311
99.87768,219.1564
100.3598,216.1031
100.8419,212.8048
101.324,209.4496
101.8061,206.6825
102.2883,204.9074
102.7704,203.4002
103.2525,201.3108
103.7346,198.4216
104.2167,195.9597
104.6988,195.2221
105.181,195.3526
105.6631,195.0938
106.1452,193.4875
106.6273,190.9829
107.1094,189.5057
107.5915,189.828
108.0737,190.2979
108.5558,190.2655
109.0379,189.8044
109.52,189.1681
110.0021,188.5075
110.4842,187.7536
110.9664,187.3664
111.4485,187.547
111.9306,187.8915
112.4127,188.3704
112.8948,188.8995
113.3769,189.2713
113.8591,189.1801
114.3412,188.3872
114.8233,187.4636
115.3054,186.2755
115.7875,185.0174
116.2696,183.8014
116.7517,182.6479
117.2339,181.6821
117.716,181.309
118.1981,181.7404
118.6802,182.1518
119.1623,182.2422
119.6444,182.1171
120.1266,182.096
120.6087,182.4079
121.0908,182.8279
121.5729,182.9426
122.055,182.7142
122.5371,182.2461
123.0193,181.5269
123.5014,180.5131
123.9835,179.6036
124.4656,178.8161
124.9477,178.3034
125.4298,178.3131
125.912,179.0352
126.3941,180.2025
126.8762,181.2759
127.3583,182.4698
127.8404,183.1499
128.3225,183.0447
128.8047,182.4333
129.2868,181.6736
129.7689,180.9861
130.251,180.3585
130.7331,179.6037
131.2152,178.9026
131.6974,177.879
132.1795,176.31
132.6616,174.3105
133.1437,172.1372
133.6258,169.9649
134.1079,167.7272
134.5901,165.9849
135.0722,165.1809
135.5543,164.4164
136.0364,163.1352
136.5185,161.306
137.0006,159.3026
137.4828,157.5383
137.9649,156.039
138.447,154.7165
138.9291,153.5959
139.4112,152.6349
139.8933,151.8124
140.3755,151.148
140.8576,150.5447
141.3397,149.8135
141.8218,148.959
142.3039,148.3117
142.786,148.1734
143.2681,148.3915
143.7503,148.3975
144.2324,147.964
144.7145,147.3862
145.1966,146.9536
145.6787,146.6692
146.1608,146.3755
146.643,145.9125
147.1251,145.2574
147.6072,144.6475
148.0893,144.2212
148.5714,143.7879
149.0535,143.2298
149.5357,142.5274
150.0178,141.752
150.4999,140.9815
150.982,140.0992
151.4641,139.4915
151.9462,139.2762
152.4284,139.2386
152.9105,139.2192
153.3926,139.1572
153.8747,139.0871
154.3568,139.0993
154.8389,139.3684
155.3211,139.5068
155.8032,139.3114
156.2853,139.03
156.7674,138.9881
157.2495,139.3589
157.7316,140.0285
158.2138,140.5132
158.6959,140.6943
159.178,140.8548
159.6601,141.0124
160.1422,141.1941
160.6243,141.4307
161.1065,141.6927
161.5886,142.0683
162.0707,142.8383
162.5528,144.1253
163.0349,145.6378
163.517,147.7598
163.9991,150.3402
164.4813,151.7185
164.9634,150.0763
165.4455,146.6298
165.9276,144.3013
166.4097,143.875
166.8918,144.2961
167.374,144.4645
167.8561,144.3471
168.3382,144.132
168.8203,143.9219
169.3024,143.6831
169.7845,143.3642
170.2667,142.959
170.7488,142.456
171.2309,141.813
171.713,140.9642
172.1951,140.0887
172.6772,139.2451
173.1594,138.4223
173.6415,137.5762
174.1236,136.6314
174.6057,135.6509
175.0878,135.0469
175.5699,135.1732
176.0521,135.3134
176.5342,135.2392
177.0163,135.0424
177.4984,134.9105
177.9805,134.9951
178.4626,135.299
178.9448,135.4874
179.4269,135.4332
179.909,135.3892
180.3911,135.2855
180.8732,135.2333
181.3553,135.496
181.8375,136.3512
182.3196,137.8999
182.8017,139.0241
183.2838,139.4915
183.7659,139.8447
184.248,140.2467
184.7301,140.7493
185.2123,141.4409
185.6944,142.4488
186.1765,143.8372
186.6586,144.9453
187.1407,145.317
187.6228,145.7285
188.105,146.805
188.5871,148.5963
189.0692,150.6658
189.5513,152.6799
190.0334,154.6237
190.5155,156.4154
190.9977,157.7416
191.4798,159.0413
191.9619,160.8721
192.444,163.3598
192.9261,166.07
193.4082,168.6843
193.8904,171.2151
194.3725,173.6336
194.8546,175.849
195.3367,177.9673
195.8188,180.2378
196.3009,182.7642
196.7831,185.2546
197.2652,187.2867
197.7473,189.0876
198.2294,191.2348
198.7115,194.0781
199.1936,197.5378
199.6758,201.2573
200.1579,205.3423
200.64,209.5769
201.1221,213.673
201.6042,217.7658
202.0863,222.1589
202.5685,227.311
203.0506,233.1496
203.5327,238.265
204.0148,242.5326
204.4969,246.0489
204.979,249.0799
205.4612,251.4311
205.9433,252.7062
206.4254,252.6292
206.9075,251.2085
207.3896,248.2423
207.8717,242.8736
208.3539,236.6207
208.836,229.5887
209.3181,222.0076
209.8002,214.2107
210.2823,206.4107
210.7644,198.5922
211.2466,191.349
211.7287,184.8974
212.2108,178.7694
212.6929,172.6618
213.175,166.6785
213.6571,161.1083
214.1393,156.2387
214.6214,152.1293
215.1035,148.3715
215.5856,144.9898
216.0677,141.8361
216.5498,138.7778
217.032,135.8521
217.5141,133.1902
217.9962,130.9426
218.4783,129.1618
218.9604,127.5158
219.4425,126.2003
219.9247,124.8383
220.4068,123.0043
220.8889,120.7741
221.371,118.7946
221.8531,117.6876
222.3352,117.5329
222.8174,117.1524
223.2995,116.3607
223.7816,115.4814
224.2637,114.7657
224.7458,114.2219
225.2279,113.7015
225.71,113.1006
226.1922,112.4169
226.6743,111.6758
227.1564,110.7008
227.6385,109.7808
228.1206,109.2296
228.6027,109.0695
229.0849,109.0297
229.567,108.9886
230.0491,108.9185
230.5312,108.7418
231.0133,108.3417
231.4954,107.8869
231.9776,107.622
232.4597,107.5879
232.9418,107.4551
233.4239,106.8781
233.906,106.0856
234.3881,105.4261
234.8703,105.0492
235.3524,104.789
235.8345,104.4263
236.3166,103.9466
236.7987,103.4126
237.2808,102.8065
237.763,102.1769
238.2451,101.57
238.7272,100.995
239.2093,100.4553
239.6914,99.93862
240.1735,99.40989
240.6557,99.0171
241.1378,98.90224
241.6199,98.90855
242.102,98.90412
242.5841,98.84801
243.0662,98.75328
243.5484,98.65205
244.0305,98.57114
244.5126,98.40667
244.9947,98.07988
245.4768,97.69197
245.9589,97.32336
246.441,97.0005
246.9232,96.70482
247.4053,96.38685
247.8874,96.00211
248.3695,95.70972
248.8516,95.61466
249.3337,95.56505
249.8159,95.44197
250.298,95.20943
250.7801,94.92284
251.2622,94.68094
251.7443,94.53594
252.2264,94.31509
252.7086,93.77902
253.1907,93.31457
253.6728,93.26658
254.1549,93.69471
254.637,94.31041
255.1191,94.66756
255.6013,94.61335
256.0834,94.61906
256.5655,94.69609
257.0476,94.82224
257.5297,95.04045
258.0118,95.33006
258.494,95.56653
258.9761,95.54717
259.4582,95.06133
259.9403,94.86459
260.4224,95.04101
260.9045,95.37255
261.3867,95.73382
261.8688,96.10869
262.3509,96.55988
262.833,97.20044
263.3151,98.18623
263.7972,98.76015
264.2794,98.68072
264.7615,98.47839
265.2436,98.36991
265.7257,98.40406
266.2078,98.56747
266.6899,98.83635
267.1721,99.18686
267.6542,99.84702
268.1363,101.2292
268.6184,102.4844
269.1005,103.132
269.5826,103.2442
270.0648,103.1821
270.5469,103.2038
271.029,103.3037
271.5111,103.6951
271.9932,104.7484
272.4753,105.6656
272.9575,106.0663
273.4396,106.041
273.9217,105.8706
274.4038,105.7252
274.8859,105.6064
275.368,105.5431
275.8501,105.6453
276.3322,105.6729
276.8144,105.4783
277.2965,105.1463
277.7786,104.869
278.2607,104.754
278.7428,104.767
279.2249,104.766
279.7071,104.768
280.1892,104.7403
280.6713,104.7301
281.1534,104.6786
281.6355,104.4409
282.1176,103.9282
282.5998,103.2816
283.0819,102.8855
283.564,102.8338
284.0461,102.8036
284.5282,102.7682
285.0103,102.7062
285.4925,102.5908
285.9746,102.4146
286.4567,102.1703
286.9388,101.7942
287.4209,101.1779
287.903,100.8053
288.3852,100.9213
288.8673,101.2562
289.3494,101.5142
289.8315,101.6306
290.3136,101.6293
290.7957,101.522
291.2779,101.2997
291.76,101.0262
292.2421,100.6396
292.7242,100.2419
293.2063,99.97311
293.6884,99.84594
294.1706,99.67673
294.6527,99.24362
295.1348,98.54842
295.6169,98.07344
296.099,97.83865
296.5811,97.82767
297.0633,98.1413
297.5454,98.74357
298.0275,99.30382
298.5096,99.58471
298.9917,99.61163
299.4738,99.66067
299.956,99.64927
300.4381,99.73228
300.9202,100.0502
301.4023,100.5612
301.8844,101.0654
302.3665,101.4335
302.8487,101.7482
303.3308,102.2516
303.8129,103.0043
304.295,103.8238
304.7771,104.6253
305.2592,105.4316
305.7414,106.3404
306.2235,107.4419
306.7056,108.5605
307.1877,109.2816
307.6698,109.495
308.1519,109.837
308.6341,110.5784
309.1162,111.5669
309.5983,112.5134
310.0804,113.3195
310.5625,114.1692
311.0446,115.3978
311.5268,117.0313
312.0089,118.4311
312.491,119.3484
312.9731,120.0228
313.4552,120.6955
313.9373,121.3943
314.4195,122.1871
314.9016,123.2138
315.3837,124.4482
315.8658,125.4719
316.3479,126.0305
316.83,126.5218
317.3121,127.2959
317.7943,128.351
318.2764,129.4474
318.7585,130.4653
319.2406,131.3828
319.7227,132.1827
320.2048,132.756
320.687,133.3289
321.1691,133.6889
321.6512,134.0639
322.1333,135.5127
322.6154,138.9695
323.0975,143.2605
323.5797,145.2435
324.0618,144.1729
324.5439,142.9372
325.026,142.2262
325.5081,142.086
325.9902,142.6504
326.4724,144.0075
326.9545,145.9272
327.4366,148.1746
327.9187,150.7944
328.4008,153.3835
328.8829,155.7988
329.3651,158.1688
329.8472,160.6494
330.3293,163.267
330.8114,165.9411
331.2935,168.659
331.7756,171.4184
332.2578,173.9208
332.7399,176.1752
333.222,178.1383
333.7041,179.7935
334.1862,181.1277
334.6683,182.1813
335.1505,183.0553
335.6326,183.6363
336.1147,183.3361
336.5968,181.5526
337.0789,179.635
337.561,178.2895
338.0432,177.2455
338.5253,175.8555
339.0074,173.8132
339.4895,171.2713
339.9716,168.6015
340.4537,165.7857
340.9359,162.9126
341.418,159.9797
341.9001,157.0019
342.3822,154.0144
342.8643,151.0387
343.3464,148.0485
343.8286,145.0013
344.3107,141.8363
344.7928,138.8144
345.2749,135.815
345.757,133.0675
346.2391,130.8797
346.7213,129.2179
347.2034,127.6292
347.6855,125.7244
348.1676,123.4745
348.6497,121.3825
349.1318,119.3797
349.614,117.5716
350.0961,116.067
350.5782,114.8102
351.0603,113.6865
351.5424,112.6503
352.0245,111.6692
352.5067,110.5879
352.9888,109.202
353.4709,107.9721
353.953,107.06
354.4351,106.2927
354.9172,105.4557
355.3994,104.4767
355.8815,103.4477
356.3636,102.5183
356.8457,101.7451
357.3278,100.9634
357.8099,100.1908
358.292,99.39598
358.7741,98.58876
359.2563,97.74962
359.7384,96.80362
360.2205,95.62017
360.7026,94.12589
361.1847,93.12405
361.6668,93.12375
362.149,93.05559
362.6311,92.34747
363.1132,91.32348
363.5953,90.68559
364.0774,90.89114
364.5595,91.70613
365.0417,92.14704
365.5238,92.20084
366.0059,91.83279
366.488,90.66007
366.9701,89.28303
367.4522,88.28693
367.9344,87.85878
368.4165,87.75053
368.8986,87.62208
369.3807,87.53547
369.8628,87.24828
370.3449,86.35144
370.8271,85.59881
371.3092,85.34698
371.7913,85.62123
372.2734,86.30042
372.7555,87.43493
373.2376,88.99465
373.7198,89.99836
374.2019,90.13168
374.684,90.04655
375.1661,90.08018
375.6482,90.03187
376.1303,89.50457
376.6125,88.19955
377.0946,86.55347
377.5767,85.5732
378.0588,85.47598
378.5409,85.4356
379.023,85.08411
379.5052,84.78306
379.9873,84.87334
380.4694,85.41817
380.9515,86.09258
381.4336,86.54955
381.9157,86.79581
382.3979,87.16673
382.88,87.89047
383.3621,88.51624
383.8442,88.59702
384.3263,88.2977
384.8084,88.22264
385.2906,88.91867
385.7727,90.02442
386.2548,90.67934
386.7369,90.76962
387.219,90.80988
387.7011,91.02881
388.1833,91.40128
388.6654,91.93367
389.1475,92.70602
389.6296,93.4951
390.1117,94.05355
390.5938,94.42117
391.076,94.90269
391.5581,95.64448
392.0402,96.48769
392.5223,97.18506
393.0044,97.71989
393.4865,98.33804
393.9687,99.20567
394.4508,100.1929
394.9329,101.0439
395.415,101.7121
395.8971,102.4455
396.3792,103.5651
396.8614,105.0109
397.3435,106.1121
397.8256,106.5869
398.3077,106.9409
398.7898,107.5083
399.2719,108.2413
399.754,108.9158
400.2361,109.3895
400.7183,109.7797
401.2004,110.4453
401.6825,111.5758
402.1646,112.6031
402.6467,113.3508
403.1288,113.9815
403.611,114.7027
404.0931,115.552
404.5752,116.3783
405.0573,116.988
405.5394,117.3103
406.0215,117.752
406.5037,118.3481
406.9858,119.0114
407.4679,119.6711
407.95,120.3631
408.4321,121.1954
408.9142,122.2562
409.3964,123.4864
409.8785,124.6286
410.3606,125.5283
410.8427,126.5378
411.3248,127.6649
411.8069,128.9216
412.2891,130.3491
412.7712,131.9451
413.2533,133.6259
413.7354,135.3042
414.2175,137.0225
414.6996,138.5941
415.1818,139.9311
415.6639,141.1911
416.146,142.5185
416.6281,143.8229
417.1102,144.8516
417.5923,145.4036
418.0745,145.6115
418.5566,145.9948
419.0387,146.7951
419.5208,147.2168
420.0029,146.9424
420.485,146.2475
420.9672,145.3046
421.4493,144.1504
421.9314,142.9155
422.4135,141.8143
422.8956,140.8272
423.3777,139.4471
423.8599,137.2845
424.342,135.1541
424.8241,133.8178
425.3062,133.059
425.7883,132.0757
426.2704,130.3247
426.7526,128.2488
427.2347,126.5684
427.7168,125.3038
428.1989,123.9566
428.681,122.2024
429.1631,120.2299
429.6453,118.4828
430.1274,117.0352
430.6095,115.6429
431.0916,114.1049
431.5737,112.5552
432.0558,111.2939
432.538,110.423
433.0201,109.6956
433.5022,108.8623
433.9843,107.9169
434.4664,106.8303
434.9485,105.5184
435.4307,104.1341
435.9128,102.7208
436.3949,101.3175
436.877,100.0066
437.3591,98.83096
437.8412,97.7952
438.3234,96.94056
438.8055,96.56459
439.2876,95.9868
439.7697,95.03511
440.2518,93.93735
440.7339,92.93533
441.216,92.06822
441.6982,91.1535
442.1803,89.92638
442.6624,88.26907
443.1445,87.14515
443.6266,86.91
444.1087,86.85368
444.5909,86.89394
445.073,86.94638
445.5551,86.91234
446.0372,86.73975
446.5193,86.46091
447.0014,86.10194
447.4836,85.56285
447.9657,85.24525
448.4478,85.35285
448.9299,85.61197
449.412,85.86661
449.8941,86.10583
450.3763,86.40282
450.8584,86.85682
451.3405,87.42346
451.8226,87.92372
452.3047,88.38566
452.7868,88.69576
453.269,88.66855
453.7511,88.4732
454.2332,88.34122
454.7153,88.33733
455.1974,88.37424
455.6795,88.4392
456.1617,88.4999
456.6438,88.39652
457.1259,88.04648
457.608,87.59652
458.0901,87.27206
458.5722,87.08015
459.0544,86.7169
459.5365,85.90329
460.0186,85.0606
460.5007,84.66767
460.9828,84.64921
461.4649,84.45414
461.9471,83.68782
462.4292,82.54172
462.9113,81.80062
463.3934,81.84576
463.8755,81.7669
464.3576,81.42613
464.8398,80.93018
465.3219,80.37492
465.804,79.78356
466.2861,79.13974
466.7682,78.40192
467.2503,77.53304
467.7325,76.87411
468.2146,76.69334
468.6967,76.43686
469.1788,75.86938
469.6609,75.15662
470.143,74.53468
470.6252,74.10392
471.1073,73.84692
471.5894,73.8123
472.0715,74.11291
472.5536,74.13664
473.0357,73.46391
473.5179,72.77135
474.0,72.48847
474.4821,72.55092
474.9642,72.59671
475.4463,72.32796
475.9284,71.92943
476.4106,71.85519
476.8927,72.16493
477.3748,72.41686
477.8569,72.31022
478.339,72.07717
478.8211,72.07532
479.3033,72.3447
479.7854,72.7472
480.2675,73.29675
480.7496,73.91227
481.2317,74.42786
481.7138,74.8099
482.1959,75.19144
482.678,75.69756
483.1602,76.32749
483.6423,76.93822
484.1244,77.42439
484.6065,78.00373
485.0886,78.73859
485.5707,79.63622
486.0529,80.74979
486.535,82.09939
487.0171,83.52435
487.4992,84.73373
487.9813,85.59138
488.4634,86.63499
488.9456,87.78421
489.4277,89.15735
489.9098,90.89645
490.3919,92.89926
490.874,94.94808
491.3561,96.90915
491.8383,98.81744
492.3204,100.7594
492.8025,102.7134
493.2846,104.748
493.7667,106.967
494.2488,109.1932
494.731,111.3133
495.2131,113.317
495.6952,115.2724
496.1773,117.2756
496.6594,119.2471
497.1415,120.9166
497.6237,122.2288
498.1058,123.4914
498.5879,124.9945
499.07,126.5129
499.5521,127.6116
500.0342,128.1645
500.5164,128.5637
500.9985,129.1675
501.4806,129.7104
501.9627,129.6956
502.4448,129.0188
502.9269,127.9574
503.4091,126.7401
503.8912,125.3512
504.3733,123.9047
504.8554,122.6749
505.3375,121.0948
505.8196,118.8038
506.3018,116.0783
506.7839,113.2895
507.266,110.5823
507.7481,107.9988
508.2302,105.6576
508.7123,103.6754
509.1945,101.5031
509.6766,98.95214
510.1587,96.4042
510.6408,93.9825
511.1229,91.66462
511.605,89.37875
512.0872,87.07661
512.5693,84.81787
513.0514,82.73203
513.5335,80.83615
514.0156,78.90527
514.4977,76.71281
514.9799,74.65002
515.462,73.11673
515.9441,72.04053
516.4262,70.92872
516.9083,69.4656
517.3904,67.91103
517.8726,66.59775
518.3547,65.51929
518.8368,64.49619
519.3189,63.40866
519.801,62.36636
520.2831,61.69635
520.7653,61.54622
521.2474,61.24646
521.7295,60.60519
522.2116,59.82761
522.6937,59.00324
523.1758,58.19875
523.658,57.58488
524.1401,57.31448
524.6222,57.30389
525.1043,57.10529
525.5864,56.48603
526.0685,56.01315
526.5507,55.82845
527.0328,55.73503
527.5149,55.52628
527.997,55.21082
528.4791,55.01733
528.9612,55.279
529.4434,55.85912
529.9255,55.85339
530.4076,55.00701
530.8897,54.16619
531.3718,53.69999
531.8539,53.42402
532.3361,53.1586
532.8182,52.87326
533.3003,52.63525
533.7824,52.51948
534.2645,52.47567
534.7466,52.35952
535.2288,52.1408
535.7109,52.03004
536.193,52.27192
536.6751,52.76463
537.1572,52.88459
537.6393,52.28313
538.1215,51.77107
538.6036,51.65047
539.0857,51.71003
539.5678,51.6884
540.0499,51.53176
540.532,51.33087
541.0142,51.14595
541.4963,50.9673
541.9784,51.1372
542.4604,51.86867
542.9426,52.71835
543.4247,54.07748
543.9068,55.27629
544.3889,55.42101
544.871,54.31625
545.3531,52.83022
545.8353,51.80675
546.3174,51.22938
546.7995,50.99532
547.2816,51.23166
547.7637,51.5288
548.2458,51.62737
548.728,51.61935
549.2101,51.63997
549.6922,51.69249
550.1743,51.81661
550.6564,52.16088
551.1385,52.57364
551.6207,52.70681
552.1028,52.48385
552.5849,52.13549
553.067,51.84465
553.5491,51.61166
554.0313,51.54429
554.5134,51.81118
554.9955,52.01638
555.4776,51.99142
555.9597,51.87282
556.4418,51.80797
556.924,51.84441
557.4061,51.98223
557.8882,52.26125
558.3703,52.69099
558.8524,52.94524
559.3345,52.92915
559.8167,52.86084
560.2988,52.83331
560.7809,52.7934
561.263,52.66707
561.7451,52.43114
562.2272,52.15925
562.7094,51.8547
563.1915,51.56187
563.6736,51.43527
564.1557,51.50076
564.6378,51.69458
565.1199,52.01305
565.6021,52.42682
566.0842,52.80373
566.5663,53.31751
567.0484,53.5514
567.5305,53.10696
568.0126,52.42666
568.4948,52.09126
568.9769,52.18414
569.459,52.38061
569.9411,52.38008
570.4232,52.19523
570.9053,52.06707
571.3875,52.05103
571.8696,52.01851
572.3517,51.87112
572.8338,51.74752
573.3159,51.82275
573.798,52.09931
574.2802,52.36306
574.7623,52.41829
575.2444,52.30476
575.7265,52.14432
576.2086,51.88792
576.6907,51.79329
577.1729,52.02851
577.655,52.48194
578.1371,52.98898
578.6192,53.58332
579.1013,54.066
579.5834,54.3463
580.0656,54.48462
580.5477,54.46601
581.0298,54.33881
581.5119,54.31021
581.994,54.49281
582.4761,54.90879
582.9583,55.65765
583.4404,57.44048
583.9225,58.46657
584.4046,57.73131
584.8867,57.09592
585.3688,58.27219
585.851,60.72199
586.3331,62.45607
586.8152,62.08754
587.2973,60.49568
587.7794,59.63436
588.2615,59.57233
588.7437,59.78831
589.2258,60.28469
589.7079,60.88976
590.19,61.42043
590.6721,61.89718
591.1542,62.45355
591.6364,63.14614
592.1185,63.919
592.6006,64.67602
593.0827,65.46395
593.5648,66.44844
594.0469,67.69341
594.5291,69.08214
595.0112,70.4612
595.4933,71.82125
595.9754,73.23109
596.4575,74.69511
596.9396,76.19621
597.4218,77.65104
597.9039,79.17382
598.386,80.92628
598.8681,82.96653
599.3502,85.21206
599.8323,87.53576
600.3145,89.95452
600.7966,92.70029
601.2787,95.76903
601.7608,99.17177
602.2429,103.0074
602.725,107.1567
603.2072,111.3613
603.6893,115.5251
604.1714,119.9906
604.6535,125.104
605.1356,130.577
605.6177,135.9322
606.0999,141.1256
606.582,146.5003
607.0641,152.3166
607.5462,158.4392
608.0283,164.3334
608.5104,170.1677
608.9926,175.4599
609.4747,180.2467
609.9568,184.4632
610.4389,188.4461
610.921,191.8697
611.4031,193.7506
611.8853,193.3123
612.3674,191.2108
612.8495,188.8547
613.3316,186.2904
613.8137,182.6877
614.2958,177.5629
614.778,171.668
615.2601,165.6109
615.7422,159.3912
616.2243,153.0193
616.7064,146.1845
617.1885,139.5146
617.6707,133.4459
618.1528,127.8329
618.6349,122.3032
619.117,116.7539
619.5991,111.4447
620.0812,106.6755
620.5634,102.4324
621.0455,98.67803
621.5276,95.75915
622.0097,92.92426
622.4918,89.93143
622.9739,87.00769
623.4561,84.40439
623.9382,82.17866
624.4203,80.20566
624.9023,78.43147
625.3845,76.83739
625.8666,75.38918
626.3487,74.08547
626.8308,72.9203
627.3129,71.91703
627.795,71.01893
628.2772,70.08266
628.7593,69.05586
629.2414,68.23164
629.7235,67.84694
630.2056,67.50187
630.6877,66.92392
631.1699,66.15504
631.652,65.27313
632.1341,64.31672
632.6162,63.47695
633.0983,63.16697
633.5804,63.54345
634.0626,63.63148
634.5447,63.25018
635.0268,62.79097
635.5089,62.4144
635.991,62.0819
636.4731,61.71674
636.9553,61.28113
637.4374,60.91002
637.9195,60.71239
638.4016,60.64376
638.8837,60.66526
639.3658,60.76419
639.848,60.76556
640.3301,60.50791
640.8122,60.12212
641.2943,60.05097
641.7764,60.67241
642.2585,61.05555
642.7407,61.13417
643.2228,61.03477
643.7049,60.7487
644.187,60.35644
644.6691,59.98876
645.1512,59.69777
645.6334,59.54815
646.1155,59.7209
646.5976,60.21265
647.0797,60.59678
647.5618,60.83686
648.0439,60.90014
648.5261,60.64189
649.0082,60.18149
649.4903,59.90074
649.9724,59.89286
650.4545,59.96754
650.9366,60.10082
651.4188,60.24931
651.9009,60.40649
652.383,60.54126
652.8651,60.51258
653.3472,60.18435
653.8293,59.68031
654.3115,59.49144
654.7936,59.79872
655.2757,59.982
655.7578,59.87805
656.2399,59.69279
656.722,59.49221
657.2042,59.29874
657.6863,59.15752
658.1684,59.08541
658.6505,59.07039
659.1326,59.20463
659.6147,59.38432
660.0969,59.25893
660.579,58.74512
661.0611,58.19724
661.5432,57.92782
662.0253,57.9095
662.5074,57.84934
662.9896,57.71708
663.4717,57.58271
663.9538,57.41392
664.4359,57.27422
664.918,57.27062
665.4001,57.35456
665.8823,57.32555
666.3644,57.00424
666.8465,56.59303
667.3286,56.51756
667.8107,56.76445
668.2928,56.85045
668.775,56.62984
669.2571,56.31536
669.7392,56.09432
670.2213,55.95865
670.7034,55.81549
671.1855,55.62239
671.6677,55.47152
672.1498,55.50575
672.6319,55.53047
673.114,55.26256
673.5961,54.72677
674.0782,54.23209
674.5604,54.01387
675.0425,54.00753
675.5246,54.02703
676.0067,54.09949
676.4888,54.08119
676.9709,53.96186
677.4531,53.71759
677.9352,53.23117
678.4173,52.59706
678.8994,52.16497
679.3815,52.13953
679.8636,52.17432
680.3458,52.0877
680.8279,51.9217
681.31,51.71224
681.7921,51.48059
682.2742,51.30445
682.7563,51.26223
683.2385,51.3106
683.7206,51.22042
684.2027,50.88337
684.6848,50.64465
685.1669,50.65926
685.649,50.6891
686.1312,50.58561
686.6133,50.3821
687.0954,50.19067
687.5775,50.02987
688.0596,49.93703
688.5417,49.99811
689.0239,50.14454
689.506,50.2152
689.9881,50.18169
690.4702,50.1027
690.9523,50.01837
691.4344,49.93144
691.9166,49.85027
692.3987,49.71172
692.8808,49.68547
693.3629,49.9428
693.845,50.15798
694.3271,50.1063
694.8093,49.84968
695.2914,49.56709
695.7735,49.31688
696.2556,49.12955
696.7377,49.0773
697.2198,49.11849
697.702,49.07218
698.1841,48.90037
698.6662,48.81246
699.1483,48.9731
699.6304,49.32033
700.1125,49.6193
700.5947,49.96162
701.0768,50.10536
701.5589,49.83826
702.041,49.5666
702.5231,49.49886
703.0052,49.62984
703.4874,49.8173
703.9695,49.96444
704.4516,50.46748
704.9337,52.2669
705.4158,54.94825
705.8979,56.40598
706.3801,56.33994
706.8622,55.69863
707.3442,54.77876
707.8264,53.83512
708.3085,53.54311
708.7906,54.08202
709.2727,54.76999
709.7548,55.96046
710.2369,56.90413
710.7191,57.04137
711.2012,56.64454
711.6833,56.16602
712.1654,55.77696
712.6475,55.54406
713.1296,55.5466
713.6118,55.77191
714.0939,56.18958
714.576,56.82814
715.0581,57.48406
715.5402,58.16112
716.0223,58.70047
716.5045,58.7773
716.9866,58.32591
717.4687,57.87685
717.9508,57.43521
718.4329,57.04713
718.915,56.96415
719.3972,56.8548
719.8793,55.85961
720.3614,53.96061
720.8435,52.75212
721.3256,54.4379
721.8077,57.93804
722.2899,58.60626
722.772,56.05127
723.2541,53.93368
723.7362,53.44742
724.2183,53.8077
724.7004,54.26071
725.1826,54.80625
725.6647,55.23983
726.1468,55.36657
726.6289,55.60378
727.111,56.22283
727.5931,56.96125
728.0753,57.48832
728.5574,57.79255
729.0395,58.11686
729.5216,58.65488
730.0037,59.29856
730.4858,59.76354
730.968,60.03802
731.4501,60.47962
731.9322,61.2261
732.4143,61.98966
732.8964,62.50932
733.3785,62.83952
733.8607,63.28466
734.3428,63.89691
734.8249,64.53647
735.307,65.30186
735.7891,65.98451
736.2712,66.31084
736.7534,66.40669
737.2355,66.65726
737.7176,67.26648
738.1997,68.01082
738.6818,68.63042
739.1639,69.11263
739.6461,69.28294
740.1282,69.05453
740.6103,68.85509
741.0924,68.97858
741.5745,69.24229
742.0566,69.20457
742.5388,68.73569
743.0209,68.44067
743.503,68.72696
743.9851,68.82558
744.4672,68.16737
744.9493,67.11642
745.4315,66.22303
745.9136,65.65367
746.3957,65.25229
746.8778,64.96337
747.3599,64.71268
747.842,64.24397
748.3242,63.5509
748.8063,62.84995
749.2884,62.20567
749.7705,61.60003
750.2526,61.01169
750.7347,60.44457
751.2169,59.86299
751.699,59.26149
752.1811,58.65545
752.6632,57.97731
753.1453,57.34459
753.6274,56.92023
754.1096,56.65678
754.5917,56.32304
755.0738,55.77505
755.5559,55.11901
756.038,54.47224
756.5201,53.84162
757.0023,53.26007
757.4844,52.72917
757.9665,52.28849
758.4486,51.98215
758.9307,51.77125
759.4128,51.51989
759.895,51.13884
760.3771,50.88089
760.8592,50.88645
761.3413,50.85932
761.8234,50.59951
762.3055,50.2359
762.7877,50.00999
763.2698,49.9961
763.7519,49.93414
764.234,49.5512
764.7161,49.04051
765.1982,48.70161
765.6804,48.52655
766.1625,48.41407
766.6446,48.3276
767.1267,48.25224
767.6088,48.18107
768.0909,48.1179
768.5731,47.92012
769.0552,47.34172
769.5373,47.03434
770.0194,47.45877
770.5015,47.94288
770.9836,47.95079
771.4658,47.52217
771.9479,47.01744
772.43,46.43618
772.9121,45.98446
773.3942,45.95136
773.8763,46.07985
774.3585,45.90926
774.8406,45.43404
775.3227,45.02977
775.8048,44.94514
776.2869,45.07708
776.769,45.22729
777.2512,45.43165
777.7333,45.38884
778.2154,44.9137
778.6975,44.49774
779.1796,44.47752
779.6617,44.65483
780.1439,44.68486
780.626,44.51458
781.1081,44.41409
781.5902,44.51166
782.0723,44.63516
782.5544,44.68091
783.0366,44.67309
783.5187,44.67939
784.0008,44.708
784.4829,44.67132
784.965,44.43769
785.4471,44.10858
785.9293,44.0208
786.4114,44.17844
786.8935,44.29571
787.3756,44.26886
787.8577,44.2959
788.3398,44.62914
788.822,45.20143
789.304,45.42785
789.7861,45.00415
790.2682,44.69084
790.7504,44.49432
791.2325,44.47039
791.7146,44.81053
792.1967,45.31907
792.6788,45.57703
793.1609,45.40985
793.6431,45.18138
794.1252,45.20018
794.6073,45.37879
795.0894,45.58816
795.5715,45.80925
796.0536,45.96423
796.5358,46.01413
797.0179,46.06967
797.5,46.31656
797.9821,46.77464
798.4642,46.93447
798.9464,46.58377
799.4285,46.32031
799.9106,46.37859
800.3927,46.50854
800.8748,46.48204
801.3569,46.3492
801.8391,46.38349
802.3212,46.78392
802.8033,47.17891
803.2854,47.3653
803.7675,47.44576
804.2496,47.53732
804.7318,47.64307
805.2139,47.71953
805.696,47.74412
806.1781,47.70634
806.6602,47.5381
807.1423,47.25862
807.6245,47.1576
808.1066,47.27187
808.5887,47.45583
809.0708,47.72567
809.5529,47.92219
810.035,47.77815
810.5172,47.23195
810.9993,46.72803
811.4814,46.21201
811.9635,45.80832
812.4456,45.62816
812.9277,45.52144
813.4099,45.34845
813.892,45.11101
814.3741,44.89452
814.8562,44.73779
815.3383,44.62672
815.8204,44.64459
816.3026,44.674
816.7847,44.34361
817.2668,43.67199
817.7489,43.20854
818.231,43.28879
818.7131,43.62451
819.1953,43.64775
819.6774,43.29937
820.1595,43.01117
820.6416,42.82258
821.1237,42.61357
821.6058,42.2937
822.088,41.96452
822.5701,41.75081
823.0522,41.64929
823.5343,41.53905
824.0164,41.32002
824.4985,41.18017
824.9807,41.34627
825.4628,41.53972
825.9449,41.39291
826.427,40.95162
826.9091,40.54575
827.3912,40.3567
827.8734,40.29183
828.3555,40.24224
828.8376,40.20507
829.3197,40.19718
829.8018,40.22096
830.2839,40.11768
830.7661,39.7794
831.2482,39.3583
831.7303,39.10291
832.2124,39.03499
832.6945,38.9809
833.1766,38.91671
833.6588,38.90306
834.1409,38.95918
834.623,39.06257
835.1051,39.24979
835.5872,39.48125
836.0693,39.59233
836.5515,39.56782
837.0336,39.35945
837.5157,38.66955
837.9978,37.96095
838.4799,37.84675
838.962,38.23262
839.4442,38.6762
839.9263,38.97055
840.4084,39.07151
840.8905,38.7911
841.3726,38.23083
841.8547,38.02148
842.3369,38.19447
842.819,38.3887
843.3011,38.5024
843.7832,38.50624
844.2653,38.3312
844.7474,37.98408
845.2296,37.77939
845.7117,37.78602
846.1938,37.83932
846.6759,38.01506
847.158,38.14627
847.6401,38.08659
848.1223,37.90952
848.6044,37.77987
849.0865,37.73396
849.5686,37.76169
850.0507,37.84923
850.5328,38.01494
851.015,38.40531
851.4971,38.867
851.9792,39.02068
852.4613,38.77203
852.9434,38.40674
853.4255,38.19873
853.9077,38.09642
854.3898,37.90686
854.8719,37.6297
855.354,37.53139
855.8361,37.69255
856.3182,37.93434
856.8004,38.17727
857.2825,38.35895
857.7646,38.25695
858.2467,37.61885
858.7288,37.24699
859.2109,37.42538
859.6931,37.53048
860.1752,37.19581
860.6573,36.75218
861.1394,36.63344
861.6215,36.87392
862.1036,37.10711
862.5858,37.26276
863.0679,37.28249
863.55,36.99806
864.0321,36.6214
864.5142,36.43589
864.9963,36.46889
865.4785,36.65674
865.9606,36.98374
866.4427,37.27645
866.9248,37.20864
867.4069,36.85476
867.889,36.58393
868.3712,36.41622
868.8533,36.41864
869.3354,36.66002
869.8175,36.93944
870.2996,36.97417
870.7817,36.76154
871.2639,36.63926
871.7459,36.69283
872.228,36.686
872.7101,36.54697
873.1923,36.36753
873.6744,36.16966
874.1565,35.97788
874.6386,35.84661
875.1207,35.79908
875.6028,35.7711
876.085,35.75875
876.5671,35.74078
877.0492,35.65114
877.5313,35.56403
878.0134,35.67268
878.4955,35.97676
878.9777,36.14527
879.4598,35.81358
879.9419,35.32472
880.424,35.31948
880.9061,35.64889
881.3882,35.71006
881.8704,35.4259
882.3525,35.24706
882.8346,35.47901
883.3167,35.90027
883.7988,36.02486
884.2809,35.79605
884.7631,35.72344
885.2452,35.92165
885.7273,35.97897
886.2094,35.61568
886.6915,35.19133
887.1736,35.12844
887.6558,35.40513
888.1379,35.66236
888.62,36.04409
889.1021,36.18867
889.5842,35.80815
890.0663,35.38434
890.5485,35.27024
891.0306,35.35938
891.5127,35.40125
891.9948,35.32636
892.4769,35.22505
892.959,35.10441
893.4412,35.02851
893.9233,35.13282
894.4054,35.31718
894.8875,35.35163
895.3696,35.20546
895.8517,35.03612
896.3339,34.95692
896.816,34.94013
897.2981,34.90894
897.7802,34.87648
898.2623,35.01665
898.7444,35.36435
899.2266,35.64182
899.7087,35.71968
900.1908,35.65363
900.6729,35.50145
901.155,35.25348
901.6371,35.14146
902.1193,35.23834
902.6014,35.33526
903.0835,35.39718
903.5656,35.44428
904.0477,35.5022
904.5298,35.55495
905.012,35.5633
905.4941,35.53075
905.9762,35.43238
906.4583,35.06259
906.9404,34.83751
907.4225,35.18874
907.9047,35.74581
908.3868,36.00505
908.8689,35.89224
909.351,35.63661
909.8331,35.29094
910.3152,34.99017
910.7974,34.93241
911.2795,34.99141
911.7616,34.89607
912.2437,34.6669
912.7258,34.54143
913.2079,34.63223
913.6901,34.8363
914.1722,35.05235
914.6543,35.2617
915.1364,35.35317
915.6185,35.32345
916.1006,35.25629
916.5828,35.1617
917.0649,35.08814
917.547,35.09214
918.0291,35.134
918.5112,35.05195
918.9933,34.72383
919.4755,34.59277
919.9576,34.84704
920.4397,35.0293
920.9218,34.90664
921.4039,34.65664
921.886,34.42341
922.3682,34.21685
922.8503,34.15212
923.3324,34.29022
923.8145,34.51058
924.2966,34.92599
924.7787,35.28077
925.2609,35.30466
925.743,35.12666
926.2251,35.05317
926.7072,35.17751
927.1893,35.26759
927.6714,35.11999
928.1536,34.90912
928.6357,34.80259
929.1178,34.76841
929.5999,34.69246
930.082,34.5907
930.5641,34.67928
931.0463,35.12856
931.5284,35.64579
932.0105,35.74457
932.4926,35.50965
932.9747,35.26555
933.4568,35.03335
933.939,34.80165
934.4211,34.55639
934.9032,34.44724
935.3853,34.68032
935.8674,35.16682
936.3495,35.34858
936.8317,35.12574
937.3138,35.0599
937.7959,35.32707
938.278,35.49445
938.7601,35.22447
939.2422,34.79129
939.7244,34.72063
940.2065,35.11187
940.6886,35.27729
941.1707,35.02625
941.6528,34.81861
942.1349,34.75188
942.6171,34.74672
943.0992,34.73053
943.5813,34.72955
944.0634,34.83327
944.5455,35.09532
945.0276,35.32323
945.5098,35.45514
945.9919,35.5262
946.474,35.52884
946.9561,35.50129
947.4382,35.53478
947.9203,35.60267
948.4025,35.50078
948.8846,35.0118
949.3667,34.59817
949.8488,34.85966
950.3309,35.38915
950.813,35.56786
951.2952,35.42256
951.7773,35.17437
952.2594,34.91816
952.7415,34.76664
953.2236,34.84291
953.7057,35.08098
954.1878,35.37164
954.6699,35.69168
955.152,35.88285
955.6342,35.92373
956.1163,35.86202
956.5984,35.70814
957.0805,35.54986
957.5626,35.52475
958.0447,35.63192
958.5269,35.84687
959.009,36.23334
959.4911,36.42915
959.9732,36.25331
960.4553,36.12071
960.9374,36.42985
961.4196,36.95739
961.9017,37.05444
962.3838,36.54329
962.8659,36.14738
963.348,35.84716
963.8301,35.69281
964.3123,35.79555
964.7944,35.96458
965.2765,36.03667
965.7586,36.02954
966.2407,36.04179
966.7228,36.06564
967.205,36.14973
967.6871,36.47402
968.1692,36.67825
968.6513,36.42311
969.1334,35.99824
969.6155,35.81946
970.0977,35.90826
970.5798,35.93808
971.0619,35.65833
971.544,35.45992
972.0261,35.7246
972.5082,36.08934
972.9904,35.81685
973.4725,35.39777
973.9546,36.41393
974.4367,39.11671
974.9188,41.03298
975.4009,39.60699
975.8831,36.97808
976.3652,35.57161
976.8473,35.29535
977.3294,36.26787
977.8115,38.24242
978.2936,40.44387
978.7758,42.5071
979.2579,43.46271
979.74,41.46094
980.2221,37.6152
980.7042,35.75833
981.1863,35.69469
981.6685,35.92089
982.1506,36.13885
982.6327,36.33925
983.1148,36.51966
983.5969,36.65705
984.079,36.68736
984.5612,36.60949
985.0433,36.61568
985.5254,36.72316
986.0075,36.81057
986.4896,36.84016
986.9717,36.86355
987.4539,36.92839
987.936,37.01348
988.4181,37.05421
988.9002,37.05028
989.3823,36.99438
989.8644,36.83043
990.3466,36.72083
990.8287,36.70303
991.3108,36.77384
991.7929,36.93868
992.275,37.19154
992.7571,37.50319
993.2393,38.04486
993.7214,38.33644
994.2035,38.10542
994.6856,37.94388
995.1677,38.08307
995.6498,38.40208
996.132,38.82736
996.6141,39.32616
997.0962,39.7252
997.5783,39.9071
998.0604,40.12613
998.5425,40.36621
999.0247,40.74412
999.5068,41.59859
999.9889,42.49422
1000.471,42.78188
1000.953,42.41533
1001.435,41.89551
1001.917,41.31037
1002.399,40.79955
1002.882,40.51078
1003.364,40.26992
1003.846,39.87685
1004.328,39.41335
1004.81,39.07121
1005.292,38.88763
1005.774,38.70869
1006.256,38.35513
1006.739,38.07543
1007.221,38.19924
1007.703,38.48318
1008.185,38.57682
1008.667,38.50929
1009.149,38.48503
1009.631,38.57143
1010.113,38.64619
1010.595,38.53432
1011.078,38.42278
1011.56,38.72157
1012.042,39.20444
1012.524,39.29553
1013.006,39.00428
1013.488,38.68142
1013.97,38.48661
1014.452,38.51181
1014.935,38.91452
1015.417,39.56947
1015.899,40.12578
1016.381,40.64358
1016.863,41.48002
1017.345,42.64514
1017.827,43.67518
1018.309,44.32825
1018.791,44.78107
1019.274,45.19675
1019.756,45.64548
1020.238,46.568
1020.72,47.93943
1021.202,49.10002
1021.684,49.91504
1022.166,50.98198
1022.648,52.67382
1023.13,54.66222
1023.613,56.38639
1024.095,57.88893
1024.577,59.86675
1025.059,62.35989
1025.541,64.99641
1026.023,67.81751
1026.505,70.3079
1026.987,72.10403
1027.469,73.47926
1027.952,74.956
1028.434,76.56685
1028.916,77.73138
1029.398,78.51663
1029.88,78.63022
1030.362,78.0021
1030.844,76.70022
1031.326,74.59093
1031.809,72.02615
1032.291,69.72896
1032.773,67.76601
1033.255,65.52683
1033.737,62.81277
1034.219,60.25437
1034.701,58.03316
1035.183,55.8809
1035.666,53.49094
1036.148,51.15213
1036.63,49.53566
1037.112,48.79274
1037.594,47.92736
1038.076,46.83588
1038.558,45.79472
1039.04,44.8448
1039.522,43.96994
1040.005,43.1682
1040.487,42.43131
1040.969,41.7182
1041.451,40.97998
1041.933,40.5096
1042.415,40.656
1042.897,40.58487
1043.379,39.96311
1043.861,39.25843
1044.344,38.74474
1044.826,38.37315
1045.308,38.03495
1045.79,37.71692
1046.272,37.49127
1046.754,37.50254
1047.236,37.41877
1047.718,37.0483
1048.201,36.66597
1048.683,36.51047
1049.165,36.46021
1049.647,36.23354
1050.129,35.77363
1050.611,35.47125
1051.093,35.55558
1051.575,35.59784
1052.057,35.38106
1052.54,35.1645
1053.022,35.17311
1053.504,35.30423
1053.986,35.36458
1054.468,35.32646
1054.95,35.23394
1055.432,35.03132
1055.914,34.8675
1056.396,34.85288
1056.879,34.83809
1057.361,34.65001
1057.843,34.40847
1058.325,34.36581
1058.807,34.5538
1059.289,34.64725
1059.771,34.39707
1060.253,34.22849
1060.736,34.43878
1061.218,34.65785
1061.7,34.58393
1062.182,34.32997
1062.664,34.06707
1063.146,33.8381
1063.628,33.74494
1064.11,34.02079
1064.593,34.15929
1065.075,33.7514
1065.557,33.32644
1066.039,33.3731
1066.521,33.63468
1067.003,33.66181
1067.485,33.41237
1067.967,33.19851
1068.449,33.12666
1068.932,33.12765
1069.414,33.24684
1069.896,33.34997
1070.378,33.28186
1070.86,33.16372
1071.342,33.24704
1071.824,33.4965
1072.306,33.5023
1072.788,32.944
1073.271,32.51477
1073.753,32.60814
1074.235,32.8731
1074.717,33.21946
1075.199,33.47846
1075.681,33.33844
1076.163,32.89384
1076.645,32.70881
1077.127,33.09162
1077.61,33.37398
1078.092,33.0443
1078.574,32.73018
1079.056,32.99741
1079.538,33.42387
1080.02,33.44548
1080.502,33.12519
1080.984,32.91257
1081.467,32.97406
1081.949,33.00535
1082.431,32.79102
1082.913,32.59636
1083.395,32.6025
1083.877,32.69828
1084.359,32.76376
1084.841,32.80714
1085.323,32.90192
1085.806,33.07571
1086.288,33.21049
1086.77,33.27061
1087.252,33.26129
1087.734,33.09384
1088.216,32.93735
1088.698,32.98333
1089.18,33.15467
1089.662,33.28327
1090.145,33.33515
1090.627,33.3063
1091.109,33.12234
1091.591,32.95466
1092.073,32.86119
1092.555,32.82715
1093.037,32.86356
1093.519,32.94123
1094.002,33.04071
1094.484,33.1495
1094.966,33.17363
1095.448,33.05215
1095.93,32.88771
1096.412,32.63024
1096.894,32.43018
1097.376,32.44247
1097.859,32.53229
1098.341,32.466
1098.823,32.27108
1099.305,32.26465
1099.787,32.59072
1100.269,32.95993
1100.751,33.44625
1101.233,33.78129
1101.715,33.76302
1102.198,33.58218
1102.68,33.35631
1103.162,33.14948
1103.644,33.14529
1104.126,33.4549
1104.608,33.69458
1105.09,33.63568
1105.572,33.70696
1106.054,34.26731
1106.537,34.82388
1107.019,34.95466
1107.501,34.77694
1107.983,34.57784
1108.465,34.34801
1108.947,34.27399
1109.429,34.58833
1109.911,34.75118
1110.394,34.48332
1110.876,34.2146
1111.358,34.25211
1111.84,34.43129
1112.322,34.45588
1112.804,34.30944
1113.286,34.29121
1113.768,34.48829
1114.25,34.67416
1114.733,34.99812
1115.215,35.07866
1115.697,34.59296
1116.179,33.9285
1116.661,33.47966
1117.143,33.2466
1117.625,33.25559
1118.107,33.75423
1118.589,33.88359
1119.072,33.40399
1119.554,33.03182
1120.036,33.06634
1120.518,33.15193
1121.0,32.95222
1121.482,32.5918
1121.964,32.44776
1122.446,32.56109
1122.929,32.63728
1123.411,32.6531
1123.893,32.73238
1124.375,32.95891
1124.857,33.05902
1125.339,32.80785
1125.821,32.43876
1126.303,32.37004
1126.786,32.58072
1127.268,32.68726
1127.75,32.68086
1128.232,32.6282
1128.714,32.52401
1129.196,32.49473
1129.678,32.61217
1130.16,32.73775
1130.642,32.69825
1131.125,32.56303
1131.607,32.59986
1132.089,32.79527
1132.571,32.90633
1133.053,32.92066
1133.535,32.90942
1134.017,32.89445
1134.499,32.79679
1134.981,32.53281
1135.464,32.26713
1135.946,32.35814
1136.428,32.69621
1136.91,32.87182
1137.392,32.89683
1137.874,32.84518
1138.356,32.74083
1138.838,32.6214
1139.321,32.50533
1139.803,32.42805
1140.285,32.4449
1140.767,32.51087
1141.249,32.50723
1141.731,32.5023
1142.213,32.73589
1142.695,33.1139
1143.177,33.22882
1143.66,32.98335
1144.142,32.72494
1144.624,32.69965
1145.106,32.76065
1145.588,32.70391
1146.07,32.68499
1146.552,33.02851
1147.034,33.50174
1147.516,33.61124
1147.999,33.37034
1148.481,33.22318
1148.963,33.36905
1149.445,33.5504
1149.927,33.53506
1150.409,33.57651
1150.891,33.96654
1151.373,34.42182
1151.856,34.65196
1152.338,34.68055
1152.82,34.61767
1153.302,34.48732
1153.784,34.36184
1154.266,34.20809
1154.748,34.14392
1155.23,34.3628
1155.713,34.51326
1156.195,34.14611
1156.677,33.73219
1157.159,34.06794
1157.641,35.02285
1158.123,35.41094
1158.605,34.75755
1159.087,34.32493
1159.569,34.42081
1160.052,34.42767
1160.534,34.09906
1161.016,33.71785
1161.498,33.45516
1161.98,33.30922
1162.462,33.30088
1162.944,33.45377
1163.426,33.48503
1163.908,33.35935
1164.391,33.20308
1164.873,33.0013
1165.355,32.86645
1165.837,32.86312
1166.319,32.92003
1166.801,32.95531
1167.283,32.97756
1167.765,33.02988
1168.247,33.11432
1168.73,33.19069
1169.212,33.26116
1169.694,33.12051
1170.176,32.70662
1170.658,32.37912
1171.14,32.39325
1171.622,32.58052
1172.104,32.70123
1172.587,32.762
1173.069,32.77837
1173.551,32.75515
1174.033,32.70059
1174.515,32.62379
1174.997,32.54903
1175.479,32.48814
1175.961,32.46437
1176.443,32.48782
1176.926,32.57714
1177.408,32.8498
1177.89,33.13364
1178.372,33.12162
1178.854,32.94579
1179.336,32.90565
1179.818,33.01374
1180.3,33.05495
1180.782,32.92204
1181.265,32.86837
1181.747,33.2163
1182.229,33.49117
1182.711,33.256
1183.193,32.91315
1183.675,32.92953
1184.157,33.10168
1184.639,32.9174
1185.122,32.33765
1185.604,32.03218
1186.086,32.4351
1186.568,32.66273
1187.05,32.29395
1187.532,32.064
1188.014,32.51648
1188.496,33.03684
1188.979,32.94812
1189.461,32.50833
1189.943,32.49742
1190.425,33.0327
1190.907,33.2987
1191.389,33.22387
1191.871,33.06218
1192.353,32.80779
1192.835,32.61108
1193.318,32.56405
1193.8,32.5538
1194.282,32.42077
1194.764,32.2368
1195.246,32.35316
1195.728,32.74957
1196.21,32.80922
1196.692,32.52649
1197.174,32.33776
1197.657,32.36356
1198.139,32.73378
1198.621,33.54841
1199.103,34.47443
1199.585,35.26685
1200.067,35.70437
1200.549,35.03735
1201.031,33.79712
1201.514,33.17438
1201.996,33.09467
1202.478,32.86977
1202.96,32.3539
1203.442,32.04712
1203.924,32.31491
1204.406,32.64735
1204.888,32.70415
1205.37,32.61742
1205.853,32.42243
1206.335,32.20316
1206.817,32.01212
1207.299,31.88454
1207.781,31.89024
1208.263,32.0487
1208.745,32.23641
1209.227,32.67116
1209.709,32.76012
1210.192,31.90737
1210.674,31.24269
1211.156,31.47948
1211.638,32.0485
1212.12,32.46122
1212.602,32.71802
1213.084,32.79721
1213.566,32.64605
1214.049,32.59855
1214.531,32.71124
1215.013,32.68605
1215.495,32.43851
1215.977,32.18113
1216.459,32.02007
1216.941,31.9408
1217.423,31.93524
1217.906,31.98265
1218.388,32.01004
1218.87,32.03094
1219.352,32.16269
1219.834,32.3652
1220.316,32.35583
1220.798,32.11669
1221.28,31.87966
1221.762,31.75089
1222.245,32.14997
1222.727,34.39181
1223.209,36.48108
1223.691,35.61866
1224.173,33.60848
1224.655,32.63414
1225.137,32.5017
1225.619,32.43479
1226.101,32.28717
1226.584,32.25427
1227.066,32.45017
1227.548,32.62783
1228.03,32.77137
1228.512,32.78984
1228.994,32.56371
1229.476,32.2776
1229.958,32.00111
1230.441,31.80198
1230.923,31.81318
1231.405,32.02728
1231.887,32.19107
1232.369,32.32635
1232.851,32.32387
1233.333,32.11919
1233.815,31.99314
1234.297,32.0406
1234.78,32.14503
1235.262,32.23207
1235.744,32.28239
1236.226,32.23354
1236.708,32.13454
1237.19,32.23716
1237.672,32.47861
1238.154,32.57957
1238.636,32.53141
1239.119,32.43078
1239.601,32.31981
1240.083,32.25648
1240.565,32.28527
1241.047,32.33394
1241.529,32.32948
1242.011,32.31532
1242.493,32.33182
1242.975,32.36631
1243.458,32.41846
1243.94,32.46843
1244.422,32.46573
1244.904,32.40979
1245.386,32.39775
1245.868,32.47743
1246.35,32.56082
1246.832,32.7737
1247.315,32.79264
1247.797,32.32133
1248.279,31.8473
1248.761,31.70757
1249.243,31.78982
1249.725,31.90425
1250.207,32.04962
1250.689,32.23971
1251.172,32.49433
1251.654,32.53053
1252.136,32.31637
1252.618,32.20696
1253.1,32.30808
1253.582,32.37602
1254.064,32.23182
1254.546,32.09236
1255.028,32.31812
1255.51,32.712
1255.993,32.94712
1256.475,33.04915
1256.957,33.05529
1257.439,32.96954
1257.921,32.73133
1258.403,32.37661
1258.885,32.13442
1259.367,32.11096
1259.85,32.17869
1260.332,32.40573
1260.814,32.54229
1261.296,32.36051
1261.778,32.15475
1262.26,32.12834
1262.742,32.24227
1263.224,32.48418
1263.707,32.81454
1264.189,32.88265
1264.671,32.56076
1265.153,32.43103
1265.635,32.55836
1266.117,32.56495
1266.599,32.3285
1267.081,32.26661
1267.563,32.63581
1268.046,33.06915
1268.528,33.12521
1269.01,32.94013
1269.492,32.74446
1269.974,32.59804
1270.456,32.72045
1270.938,33.00807
1271.42,33.19262
1271.902,33.22458
1272.385,33.11939
1272.867,32.88228
1273.349,32.70053
1273.831,32.75071
1274.313,32.793
1274.795,32.74224
1275.277,32.60351
1275.759,32.16953
1276.242,31.81521
1276.724,32.1191
1277.206,32.83628
1277.688,33.11982
1278.17,32.92021
1278.652,32.7151
1279.134,32.46661
1279.616,32.36449
1280.099,32.453
1280.581,32.56242
1281.063,32.63327
1281.545,32.68896
1282.027,32.74514
1282.509,32.81723
1282.991,32.96267
1283.473,33.1261
1283.955,33.19549
